-0.290
-0.300
-0.310
-0.330
-0.320
-0.300
-0.340
-0.300
-0.320
-0.380
-0.340
-0.370
-0.400
-0.350
-0.360
-0.340
-0.370
-0.370
-0.350
-0.360
-0.340
-0.360
-0.090
-0.040
0.030
0.090
0.090
0.050
0.110
-0.060
0.050
0.140
0.140
0.160
0.160
0.130
0.130
0.110
0.120
0.100
0.110
0.090
0.030
-0.010
-0.100
-0.140
-0.110
-0.170
-0.180
-0.130
-0.190
-0.180
-0.190
-0.200
-0.190
-0.200
-0.210
-0.220
-0.260
-0.250
-0.280
-0.270
-0.280
-0.270
-0.280
-0.280
-0.310
-0.300
-0.270
-0.260
-0.330
-0.280
-0.290
-0.230
-0.250
-0.290
-0.280
-0.270
-0.240
-0.270
-0.230
-0.220
-0.230
-0.180
-0.190
-0.210
-0.200
-0.150
-0.140
-0.110
-0.120
-0.130
-0.070
-0.080
-0.050
-0.060
-0.050
-0.040
0.000
-0.030
-0.020
0.010
0.000
-0.010
0.040
0.040
0.030
0.040
0.020
0.070
0.080
0.060
0.050
0.070
0.050
0.040
0.040
0.070
0.030
0.010
-0.160
-0.270
-0.300
-0.340
-0.380
-0.400
-0.400
-0.400
-0.470
-0.500
-0.500
-0.460
-0.430
-0.420
-0.400
-0.380
-0.390
-0.370
-0.420
-0.460
-0.410
-0.330
-0.250
-0.220
-0.160
-0.170
-0.160
-0.140
-0.150
-0.130
-0.100
-0.110
-0.120
-0.090
-0.040
-0.090
-0.040
0.000
-0.010
0.020
-0.010
0.040
0.030
0.060
0.030
0.030
0.020
0.010
0.020
-0.010
0.010
0.000
-0.030
-0.020
-0.030
-0.050
-0.030
-0.070
-0.080
-0.120
-0.080
-0.090
-0.130
-0.110
-0.160
-0.140
-0.200
-0.210
-0.200
-0.230
-0.190
-0.230
-0.240
-0.250
-0.260
-0.270
-0.250
-0.310
-0.380
-0.310
-0.320
-0.300
-0.300
-0.270
-0.350
-0.350
-0.330
-0.370
-0.370
-0.350
-0.350
-0.320
-0.340
-0.370
-0.350
-0.350
-0.340
-0.320
-0.090
-0.030
0.000
0.070
0.070
0.090
0.090
0.110
0.150
0.120
0.140
0.120
0.100
0.120
0.130
0.090
0.140
0.080
0.080
0.070
0.050
-0.030
-0.080
-0.150
-0.160
-0.150
-0.170
-0.220
-0.190
-0.200
-0.190
-0.180
-0.210
-0.190
-0.200
-0.210
-0.250
-0.280
-0.430
-0.330
-0.280
-0.290
-0.340
-0.290
-0.300
-0.310
-0.250
-0.260
-0.250
-0.240
-0.250
-0.210
-0.290
-0.210
-0.270
-0.280
-0.240
-0.270
-0.240
-0.210
-0.240
-0.200
-0.170
-0.160
-0.170
-0.160
-0.100
-0.130
-0.120
-0.110
-0.100
-0.070
-0.080
-0.070
-0.060
-0.030
-0.040
-0.030
0.000
-0.030
0.000
0.000
0.010
0.040
0.050
0.010
0.000
0.030
0.030
0.040
0.060
0.050
0.050
0.080
0.060
0.040
0.010
-0.060
-0.180
-0.290
-0.310
-0.360
-0.380
-0.380
-0.400
-0.380
-0.450
-0.460
-0.460
-0.460
-0.390
-0.410
-0.380
-0.380
-0.340
-0.390
-0.390
-0.380
-0.380
-0.330
-0.270
-0.190
-0.160
-0.210
-0.150
-0.140
-0.120
-0.110
-0.120
-0.100
-0.110
-0.080
-0.070
-0.080
-0.050
-0.060
0.040
0.030
0.060
0.000
0.030
0.040
0.030
0.040
0.030
0.000
-0.020
-0.030
-0.020
-0.030
-0.020
-0.020
0.000
-0.010
-0.050
-0.070
-0.100
-0.130
-0.100
-0.080
-0.100
-0.140
-0.100
-0.130
-0.140
-0.150
-0.160
-0.210
-0.190
-0.200
-0.240
-0.250
-0.260
-0.270
-0.250
-0.260
-0.270
-0.300
-0.280
-0.320
-0.330
-0.310
-0.340
-0.350
-0.330
-0.360
-0.340
-0.380
-0.350
-0.320
-0.340
-0.350
-0.370
-0.350
-0.360
-0.340
-0.300
-0.110
-0.010
0.030
0.030
0.050
0.030
0.050
0.070
0.120
0.120
0.160
0.140
0.120
0.130
0.130
0.090
0.080
0.060
0.090
0.090
0.050
-0.010
-0.080
-0.140
-0.140
-0.080
-0.180
-0.190
-0.180
-0.180
-0.190
-0.200
-0.190
-0.220
-0.190
-0.250
-0.240
-0.250
-0.280
-0.270
-0.300
-0.310
-0.290
-0.320
-0.340
-0.280
-0.270
-0.330
-0.260
-0.320
-0.290
-0.230
-0.290
-0.270
-0.260
-0.270
-0.260
-0.260
-0.190
-0.240
-0.210
-0.200
-0.160
-0.150
-0.200
-0.150
-0.120
-0.090
-0.100
-0.130
-0.090
-0.080
-0.090
-0.060
-0.050
-0.020
0.000
-0.050
0.000
0.010
0.020
-0.090
0.000
0.020
0.030
0.040
0.040
0.090
0.050
0.060
0.070
0.050
0.070
0.060
0.080
0.050
0.030
0.010
-0.200
-0.290
-0.360
-0.340
-0.400
-0.380
-0.400
-0.380
-0.410
-0.460
-0.460
-0.460
-0.430
-0.400
-0.400
-0.380
-0.390
-0.410
-0.380
-0.420
-0.390
-0.350
-0.250
-0.220
-0.180
-0.150
-0.140
-0.170
-0.120
-0.110
-0.100
-0.130
-0.120
-0.130
-0.120
-0.110
-0.080
-0.050
-0.010
0.040
0.180
0.100
0.070
0.060
0.020
-0.010
0.040
0.030
0.020
0.000
-0.010
-0.020
-0.010
-0.020
-0.010
-0.070
-0.030
-0.070
-0.090
-0.070
-0.060
-0.120
-0.100
-0.110
-0.160
-0.140
-0.180
-0.160
-0.200
-0.180
-0.190
-0.230
-0.210
-0.250
-0.260
-0.270
-0.250
-0.290
-0.300
-0.310
-0.320
-0.330
-0.330
-0.340
-0.320
-0.330
-0.310
-0.340
-0.370
-0.350
-0.380
-0.360
-0.320
-0.370
-0.330
-0.350
-0.360
-0.340
-0.340
-0.070
-0.040
0.030
0.030
0.050
0.090
0.070
0.110
0.100
-0.050
0.100
0.120
0.130
0.130
0.110
0.120
0.080
0.130
0.090
0.100
0.050
0.000
-0.100
-0.110
-0.130
-0.160
-0.180
-0.190
-0.180
-0.170
-0.180
-0.190
-0.200
-0.190
-0.200
-0.190
-0.230
-0.260
-0.230
-0.300
-0.270
-0.260
-0.270
-0.260
-0.300
-0.250
-0.240
-0.270
-0.220
-0.220
-0.260
-0.290
-0.260
-0.230
-0.250
-0.240
-0.210
-0.220
-0.220
-0.210
-0.240
-0.210
-0.180
-0.170
-0.130
-0.160
-0.090
-0.120
-0.130
-0.100
-0.050
-0.120
-0.130
-0.060
-0.030
-0.040
-0.030
0.000
0.010
0.020
0.050
0.030
0.060
0.010
0.030
0.040
0.050
0.030
0.080
0.080
0.050
0.090
0.060
0.060
0.060
0.030
0.030
-0.160
-0.290
-0.310
-0.380
-0.380
-0.360
-0.400
-0.400
-0.450
-0.460
-0.460
-0.430
-0.430
-0.420
-0.380
-0.380
-0.390
-0.370
-0.400
-0.380
-0.370
-0.350
-0.300
-0.210
-0.160
-0.190
-0.160
-0.160
-0.120
-0.110
-0.100
-0.110
-0.140
-0.220
-0.110
-0.100
-0.050
-0.030
0.030
0.020
0.030
0.060
0.030
0.040
0.050
0.060
0.040
0.050
0.040
0.010
0.020
-0.040
-0.030
-0.040
-0.030
-0.010
-0.030
-0.040
-0.080
-0.060
-0.080
-0.090
-0.100
-0.140
-0.150
-0.160
-0.180
-0.160
-0.200
-0.210
-0.190
-0.200
-0.240
-0.270
-0.230
-0.270
-0.250
-0.260
-0.270
-0.280
-0.290
-0.290
-0.330
-0.310
-0.350
-0.350
-0.380
-0.370
-0.340
-0.380
-0.350
-0.360
-0.360
-0.350
-0.330
-0.370
-0.430
-0.340
-0.300
-0.070
0.010
0.050
0.050
0.110
0.070
0.110
0.090
0.140
0.160
0.160
0.140
0.120
0.130
0.130
0.120
0.120
0.100
0.110
0.070
0.030
-0.020
-0.120
-0.140
-0.150
-0.150
-0.160
-0.190
-0.160
-0.190
-0.180
-0.220
-0.190
-0.180
-0.230
-0.200
-0.260
-0.250
-0.300
-0.300
-0.290
-0.280
-0.270
-0.320
-0.310
-0.330
-0.310
-0.270
-0.260
-0.280
-0.240
-0.250
-0.190
-0.270
-0.280
-0.260
-0.290
-0.220
-0.230
-0.200
-0.180
-0.190
-0.180
-0.170
-0.160
-0.130
-0.110
-0.120
-0.110
-0.120
-0.110
-0.080
-0.070
-0.040
-0.050
-0.020
-0.010
0.040
-0.010
0.010
0.000
0.010
0.020
0.050
0.030
0.040
0.030
0.050
0.060
0.060
0.050
0.030
0.060
0.060
0.080
0.050
0.050
0.010
-0.180
-0.290
-0.380
-0.400
-0.420
-0.420
-0.420
-0.450
-0.460
-0.460
-0.460
-0.410
-0.270
-0.320
-0.360
-0.420
-0.410
-0.370
-0.360
-0.340
-0.310
-0.250
-0.170
-0.180
-0.170
-0.150
-0.160
-0.100
-0.090
-0.120
-0.100
-0.110
-0.100
-0.110
-0.060
-0.090
-0.020
0.000
0.030
0.040
0.050
0.030
0.040
0.030
0.020
0.030
0.040
0.000
0.010
0.000
0.010
0.000
-0.040
0.000
-0.040
-0.050
-0.070
-0.050
-0.090
-0.100
-0.080
-0.100
-0.140
-0.150
-0.180
-0.170
-0.180
-0.190
-0.210
-0.190
-0.230
-0.210
-0.220
-0.230
-0.240
-0.400
-0.330
-0.300
-0.300
-0.280
-0.290
-0.330
-0.310
-0.310
-0.300
-0.330
-0.360
-0.340
-0.380
-0.350
-0.340
-0.340
-0.350
-0.350
-0.350
-0.360
-0.320
-0.320
-0.070
-0.010
0.000
0.070
0.070
0.070
0.110
0.090
0.140
0.120
0.160
0.120
0.120
0.130
0.110
0.090
0.120
0.120
0.090
0.090
0.030
-0.050
-0.100
-0.160
-0.140
-0.150
-0.180
-0.150
-0.180
-0.180
-0.190
-0.240
-0.250
-0.220
-0.210
-0.200
-0.210
-0.230
-0.260
-0.270
-0.300
-0.330
-0.290
-0.300
-0.310
-0.280
-0.250
-0.310
-0.290
-0.210
-0.240
-0.280
-0.250
-0.250
-0.260
-0.270
-0.220
-0.240
-0.230
-0.240
-0.190
-0.200
-0.180
-0.150
-0.160
-0.170
-0.140
-0.130
-0.120
-0.120
-0.070
-0.100
-0.070
-0.040
-0.030
-0.040
-0.010
-0.050
0.020
-0.010
0.000
0.010
0.020
0.000
0.030
0.020
0.020
0.030
0.060
0.040
0.070
0.070
0.030
-0.170
0.000
0.030
0.010
-0.010
-0.220
-0.270
-0.320
-0.380
-0.400
-0.380
-0.360
-0.420
-0.420
-0.430
-0.460
-0.430
-0.430
-0.400
-0.380
-0.360
-0.370
-0.410
-0.380
-0.380
-0.370
-0.310
-0.250
-0.180
-0.180
-0.170
-0.140
-0.120
-0.100
-0.160
-0.100
-0.090
-0.080
-0.090
-0.100
-0.070
-0.060
-0.030
0.030
0.040
0.030
0.020
0.030
0.010
0.020
0.010
0.020
0.010
0.000
0.000
-0.010
-0.020
-0.050
-0.030
-0.040
-0.020
-0.030
-0.040
-0.060
-0.070
-0.060
-0.090
-0.130
-0.120
-0.130
-0.140
-0.180
-0.160
-0.200
-0.180
-0.220
-0.230
-0.250
-0.230
-0.240
-0.240
-0.280
-0.290
-0.320
-0.280
-0.290
-0.330
-0.310
-0.340
-0.320
-0.360
-0.330
-0.370
-0.340
-0.350
-0.360
-0.340
-0.340
-0.370
-0.350
-0.340
-0.340
-0.280
-0.090
-0.030
0.030
0.030
0.050
0.070
0.090
0.090
0.130
0.140
0.160
0.120
-0.010
0.090
0.090
0.110
0.100
0.120
0.110
0.070
0.050
-0.010
-0.080
-0.110
-0.140
-0.150
-0.160
-0.160
-0.190
-0.180
-0.190
-0.200
-0.190
-0.200
-0.190
-0.250
-0.240
-0.250
-0.280
-0.270
-0.300
-0.290
-0.300
-0.310
-0.310
-0.280
-0.320
-0.310
-0.320
-0.220
-0.270
-0.260
-0.290
-0.280
-0.260
-0.270
-0.240
-0.250
-0.260
-0.240
-0.230
-0.220
-0.210
-0.160
-0.140
-0.150
-0.140
-0.150
-0.180
-0.130
-0.080
-0.090
-0.080
-0.050
-0.060
0.010
-0.020
-0.010
-0.020
0.010
0.020
0.030
0.010
0.040
0.030
0.040
0.040
0.030
0.050
0.040
0.020
0.070
0.030
0.060
0.060
0.040
0.030
-0.010
-0.220
-0.270
-0.340
-0.320
-0.380
-0.400
-0.400
-0.420
-0.420
-0.500
-0.460
-0.480
-0.430
-0.430
-0.400
-0.400
-0.370
-0.410
-0.350
-0.400
-0.370
-0.410
-0.300
-0.170
-0.160
-0.170
-0.180
-0.110
-0.120
-0.110
-0.100
-0.090
-0.100
-0.090
-0.100
-0.070
-0.020
-0.070
0.030
0.040
0.030
0.040
0.050
0.040
0.030
0.060
0.020
0.010
0.000
-0.010
0.020
-0.020
-0.010
-0.060
0.000
-0.050
-0.060
-0.040
-0.080
-0.040
-0.080
-0.090
-0.080
-0.110
-0.120
-0.170
-0.180
-0.190
-0.170
-0.180
-0.240
-0.200
-0.210
-0.220
-0.230
-0.270
-0.300
-0.350
-0.270
-0.280
-0.290
-0.290
-0.300
-0.310
-0.350
-0.300
-0.360
-0.370
-0.340
-0.350
-0.350
-0.340
-0.340
-0.350
-0.350
-0.330
-0.360
-0.320
-0.280
-0.090
0.000
0.030
0.050
0.050
0.070
0.090
0.130
0.140
0.140
0.140
0.120
0.100
0.090
0.070
0.110
0.080
0.080
0.040
0.020
-0.050
-0.120
-0.150
-0.180
-0.150
-0.170
-0.200
-0.190
-0.180
-0.270
-0.240
-0.200
-0.230
-0.220
-0.230
-0.270
-0.260
-0.270
-0.310
-0.280
-0.290
-0.280
-0.290
-0.320
-0.310
-0.330
-0.280
-0.300
-0.240
-0.300
-0.220
-0.250
-0.300
-0.290
-0.280
-0.260
-0.230
0.330
-0.080
-0.200
-0.200
-0.190
-0.180
-0.210
-0.180
-0.170
-0.150
-0.140
-0.130
-0.120
-0.110
-0.120
-0.090
-0.100
-0.050
-0.080
-0.030
-0.020
-0.010
0.020
-0.020
-0.110
-0.020
0.010
0.050
0.040
0.030
0.050
0.060
0.040
0.030
0.050
0.060
0.040
0.060
0.030
0.030
-0.010
-0.160
-0.260
-0.340
-0.360
-0.380
-0.380
-0.380
-0.420
-0.450
-0.480
-0.460
-0.410
-0.390
-0.400
-0.420
-0.400
-0.410
-0.390
-0.400
-0.380
-0.330
-0.270
-0.190
-0.180
-0.190
-0.130
-0.180
-0.120
-0.130
-0.110
-0.100
-0.130
-0.080
-0.110
-0.100
-0.170
-0.060
-0.030
0.010
0.080
0.050
0.030
0.040
0.030
0.080
0.030
0.020
0.020
0.010
0.000
-0.010
-0.020
-0.020
0.000
-0.040
-0.050
-0.070
-0.080
-0.060
-0.100
-0.080
-0.100
-0.160
-0.150
-0.160
-0.170
-0.150
-0.170
-0.210
-0.220
-0.200
-0.240
-0.250
-0.280
-0.270
-0.280
-0.260
-0.300
-0.260
-0.280
-0.320
-0.300
-0.340
-0.390
-0.370
-0.360
-0.340
-0.340
-0.380
-0.330
-0.360
-0.340
-0.350
-0.350
-0.330
-0.360
-0.320
-0.300
-0.070
0.030
0.030
0.050
0.090
0.070
0.090
0.070
0.110
0.140
0.120
0.140
0.120
0.110
0.090
0.090
0.100
0.060
0.130
0.070
0.010
-0.030
-0.100
-0.140
-0.160
-0.080
-0.160
-0.190
-0.210
-0.220
-0.190
-0.120
-0.170
-0.180
-0.190
-0.220
-0.260
-0.250
-0.320
-0.310
-0.280
-0.290
-0.290
-0.280
-0.360
-0.260
-0.290
-0.260
-0.290
-0.320
-0.270
-0.280
-0.270
-0.290
-0.280
-0.270
-0.260
-0.240
-0.210
-0.220
-0.210
-0.180
-0.180
-0.170
-0.160
-0.130
-0.100
-0.130
-0.140
-0.100
-0.070
-0.060
-0.070
-0.060
-0.030
0.000
0.010
-0.010
0.000
0.010
0.000
0.050
0.000
0.040
0.030
0.060
-0.020
0.010
0.040
0.080
0.090
0.070
0.080
0.060
0.060
0.070
0.030
0.010
-0.200
-0.280
-0.340
-0.380
-0.380
-0.380
-0.400
-0.400
-0.470
-0.480
-0.460
-0.480
-0.430
-0.400
-0.400
-0.380
-0.390
-0.370
-0.420
-0.380
-0.370
-0.330
-0.250
-0.200
-0.160
-0.190
-0.160
-0.140
-0.150
-0.160
-0.120
-0.090
-0.100
-0.110
-0.080
-0.090
-0.040
-0.050
-0.100
0.000
0.030
0.060
0.030
0.040
0.020
0.010
0.020
0.030
0.020
0.020
0.010
-0.020
-0.030
0.010
-0.040
-0.070
-0.060
-0.070
-0.060
-0.100
-0.080
-0.070
-0.150
-0.140
-0.160
-0.140
-0.180
-0.190
-0.170
-0.210
-0.220
-0.200
-0.210
-0.250
-0.260
-0.240
-0.280
-0.260
-0.320
-0.330
-0.320
-0.330
-0.300
-0.340
-0.320
-0.330
-0.330
-0.430
-0.390
-0.350
-0.360
-0.340
-0.340
-0.350
-0.330
-0.360
-0.340
-0.320
-0.280
-0.060
-0.020
0.050
0.050
0.090
0.090
0.090
0.110
0.110
0.140
0.120
0.140
0.140
0.110
0.110
0.100
0.100
0.100
0.070
0.090
0.010
-0.020
-0.100
-0.140
-0.130
-0.190
-0.160
-0.190
-0.200
-0.190
-0.200
-0.170
-0.200
-0.200
-0.300
-0.270
-0.250
-0.260
-0.250
-0.260
-0.290
-0.280
-0.290
-0.300
-0.270
-0.320
-0.330
-0.250
-0.260
-0.250
-0.280
-0.250
-0.280
-0.310
-0.270
-0.260
-0.250
-0.260
-0.210
-0.190
-0.200
-0.190
-0.200
-0.170
-0.150
-0.120
-0.130
-0.100
-0.090
-0.100
-0.090
-0.100
-0.050
-0.060
-0.030
-0.020
-0.010
-0.020
-0.010
-0.020
0.010
-0.010
0.020
0.030
0.040
0.020
0.050
0.010
0.040
0.040
0.050
0.070
0.080
0.080
0.050
0.090
0.050
0.010
-0.220
-0.280
-0.340
-0.360
-0.400
-0.380
-0.380
-0.420
-0.420
-0.460
-0.430
-0.410
-0.390
-0.380
-0.400
-0.380
-0.390
-0.370
-0.400
-0.340
-0.310
-0.270
-0.170
-0.200
-0.150
-0.150
-0.110
-0.120
-0.050
-0.100
-0.120
-0.090
-0.080
-0.110
-0.060
-0.070
-0.020
0.000
0.050
-0.170
0.000
0.030
0.020
0.050
0.040
0.030
0.030
0.000
-0.010
0.000
-0.010
-0.030
-0.040
0.000
-0.010
-0.050
-0.070
-0.050
-0.060
-0.070
-0.070
-0.130
-0.090
-0.120
-0.130
-0.170
-0.160
-0.170
-0.180
-0.220
-0.180
-0.240
-0.250
-0.260
-0.220
-0.280
-0.290
-0.270
-0.310
-0.320
-0.320
-0.330
-0.340
-0.370
-0.350
-0.360
-0.390
-0.340
-0.350
-0.330
-0.360
-0.340
-0.350
-0.460
-0.350
-0.340
-0.320
-0.260
-0.070
0.030
0.030
0.070
0.070
0.070
0.090
0.110
0.110
0.140
0.140
0.140
0.120
0.130
0.090
0.070
0.120
0.100
0.090
0.040
0.030
-0.050
-0.120
-0.110
-0.160
-0.130
-0.160
-0.170
-0.190
-0.180
-0.190
-0.220
-0.190
-0.200
-0.230
-0.200
-0.280
-0.270
-0.280
-0.290
-0.320
-0.350
-0.330
-0.320
-0.290
-0.330
-0.340
-0.310
-0.290
-0.230
-0.370
-0.300
-0.190
-0.290
-0.260
-0.250
-0.240
-0.200
-0.210
-0.180
-0.210
-0.220
-0.140
-0.170
-0.140
-0.130
-0.140
-0.130
-0.070
-0.100
-0.090
-0.060
-0.070
-0.040
-0.030
-0.020
-0.030
0.000
-0.020
-0.010
0.020
0.050
0.020
0.040
0.050
0.020
0.070
0.030
0.080
0.040
0.050
0.030
0.020
0.020
0.040
0.030
0.030
0.010
-0.200
-0.300
-0.340
-0.340
-0.420
-0.450
-0.420
-0.400
-0.450
-0.420
-0.430
-0.460
-0.430
-0.390
-0.420
-0.380
-0.390
-0.390
-0.390
-0.360
-0.370
-0.310
-0.230
-0.190
-0.160
-0.190
-0.160
-0.140
-0.120
-0.110
-0.100
-0.090
-0.100
-0.090
-0.080
-0.070
-0.040
0.000
-0.040
0.020
0.030
0.040
0.050
0.060
0.040
0.030
0.040
0.010
0.020
0.000
-0.010
-0.020
-0.030
-0.040
-0.040
-0.050
-0.080
-0.070
-0.110
-0.100
-0.080
-0.090
-0.100
-0.150
-0.240
-0.170
-0.150
-0.160
-0.170
-0.210
-0.220
-0.200
-0.210
-0.260
-0.240
-0.270
-0.250
-0.260
-0.270
-0.280
-0.320
-0.300
-0.290
-0.310
-0.350
-0.330
-0.310
-0.320
-0.350
-0.350
-0.320
-0.340
-0.350
-0.370
-0.350
-0.340
-0.340
-0.280
-0.050
0.000
0.030
0.070
0.070
0.090
0.090
0.130
0.130
0.110
0.180
0.120
0.080
0.120
0.090
0.090
0.090
0.120
0.080
0.090
0.040
-0.030
-0.150
-0.230
-0.160
-0.150
-0.190
-0.180
-0.190
-0.180
-0.190
-0.180
-0.200
-0.210
-0.200
-0.260
-0.270
-0.260
-0.260
-0.270
-0.280
-0.290
-0.320
-0.290
-0.320
-0.270
-0.270
-0.280
-0.270
-0.240
-0.280
-0.280
-0.270
-0.260
-0.270
-0.250
-0.240
-0.250
-0.220
-0.230
-0.210
-0.200
-0.190
-0.140
-0.150
-0.130
-0.120
-0.130
-0.100
-0.130
-0.120
-0.110
-0.100
-0.090
-0.060
-0.030
-0.020
-0.030
0.000
0.010
0.040
-0.110
-0.010
0.000
0.010
0.040
0.040
0.050
0.050
0.060
0.060
0.090
0.070
0.060
0.040
0.030
0.030
-0.030
-0.250
-0.280
-0.300
-0.380
-0.380
-0.420
-0.400
-0.420
-0.450
-0.450
-0.480
-0.430
-0.410
-0.410
-0.380
-0.380
-0.380
-0.410
-0.390
-0.380
-0.380
-0.310
-0.240
-0.170
-0.180
-0.160
-0.130
-0.160
-0.120
-0.160
-0.130
-0.100
-0.110
-0.080
-0.110
-0.080
-0.030
-0.020
0.060
0.030
0.060
-0.010
-0.010
0.040
0.050
0.060
0.030
0.040
0.020
-0.010
0.020
0.010
0.000
0.010
-0.030
-0.010
-0.020
-0.070
-0.080
-0.060
-0.100
-0.060
-0.100
-0.070
-0.100
-0.160
-0.170
-0.130
-0.200
-0.210
-0.220
-0.230
-0.240
-0.250
-0.230
-0.240
-0.280
-0.290
-0.270
-0.310
-0.310
-0.290
-0.330
-0.310
-0.350
-0.300
-0.360
-0.370
-0.370
-0.350
-0.380
-0.360
-0.360
-0.350
-0.330
-0.330
-0.320
-0.320
-0.280
-0.050
0.000
0.070
0.050
0.070
0.090
0.070
0.110
0.130
0.130
0.140
0.120
0.120
0.120
0.110
0.090
0.080
0.120
0.090
0.090
0.030
-0.050
-0.100
-0.140
-0.140
-0.170
-0.140
-0.180
-0.170
-0.200
-0.190
-0.200
-0.190
-0.200
-0.190
-0.220
-0.240
-0.250
-0.240
-0.290
-0.280
-0.290
-0.370
-0.300
-0.250
-0.280
-0.250
-0.260
-0.270
-0.250
-0.310
-0.280
-0.270
-0.250
-0.300
-0.270
-0.260
-0.230
-0.210
-0.220
-0.190
-0.240
-0.250
-0.170
-0.180
-0.150
-0.120
-0.090
-0.100
-0.090
-0.090
-0.060
-0.050
-0.020
-0.010
-0.020
0.010
-0.010
-0.020
0.010
0.000
0.010
0.040
0.020
0.010
0.060
0.020
0.070
0.060
0.080
0.200
0.050
0.080
0.060
0.060
0.050
0.010
0.010
-0.220
-0.300
-0.360
-0.380
-0.210
-0.340
-0.360
-0.420
-0.400
-0.450
-0.480
-0.430
-0.430
-0.410
-0.420
-0.400
-0.400
-0.390
-0.390
-0.380
-0.340
-0.330
-0.250
-0.170
-0.200
-0.230
-0.170
-0.140
-0.120
-0.130
-0.080
-0.090
-0.100
-0.090
-0.120
-0.070
-0.080
-0.030
0.030
0.040
0.070
0.040
0.050
0.060
0.050
0.050
0.020
0.010
0.020
-0.010
-0.010
-0.020
-0.010
-0.060
0.000
-0.050
-0.080
-0.040
-0.080
-0.100
-0.080
-0.120
-0.130
-0.140
-0.150
-0.170
-0.180
-0.140
-0.170
-0.180
-0.190
-0.200
-0.240
-0.250
-0.230
-0.310
-0.320
-0.290
-0.320
-0.310
-0.320
-0.330
-0.330
-0.310
-0.320
-0.330
-0.310
-0.490
-0.370
-0.380
-0.360
-0.340
-0.340
-0.330
-0.330
-0.340
-0.320
-0.300
-0.240
-0.060
0.000
0.050
0.090
0.070
0.090
0.070
0.090
0.130
0.120
0.140
0.120
0.120
0.110
0.110
0.090
0.100
0.120
0.110
0.070
0.010
-0.030
-0.150
-0.110
-0.130
-0.170
-0.160
-0.190
-0.180
-0.190
-0.190
-0.200
-0.210
-0.200
-0.230
-0.220
-0.240
-0.270
-0.280
-0.290
-0.290
-0.340
-0.380
-0.280
-0.290
-0.300
-0.330
-0.270
-0.260
-0.340
-0.220
-0.270
-0.260
-0.350
-0.320
-0.250
-0.230
-0.220
-0.210
-0.220
-0.160
-0.170
-0.160
-0.150
-0.140
-0.130
-0.090
-0.120
-0.110
-0.100
-0.050
-0.040
-0.050
-0.040
0.010
-0.020
-0.010
0.000
0.030
0.020
0.020
0.010
0.040
0.030
0.030
0.060
0.050
0.030
0.040
0.080
0.070
0.090
0.060
0.080
0.040
0.050
0.030
-0.030
-0.250
-0.260
-0.340
-0.380
-0.420
-0.400
-0.400
-0.450
-0.420
-0.480
-0.480
-0.460
-0.410
-0.400
-0.400
-0.440
-0.410
-0.410
-0.380
-0.380
-0.350
-0.310
-0.230
-0.160
-0.140
-0.150
-0.110
-0.120
-0.100
-0.090
-0.100
-0.110
-0.080
-0.090
-0.080
-0.050
-0.080
0.000
0.030
0.040
0.070
0.040
0.040
0.050
0.020
0.030
0.020
0.030
-0.010
-0.020
0.010
-0.040
-0.030
-0.030
-0.040
-0.050
-0.060
-0.050
-0.060
-0.050
-0.080
-0.120
-0.140
-0.150
-0.160
-0.170
-0.180
-0.160
-0.200
-0.190
-0.230
-0.260
-0.220
-0.280
-0.240
-0.280
-0.290
-0.290
-0.300
-0.310
-0.290
-0.300
-0.610
-0.400
-0.350
-0.330
-0.330
-0.320
-0.350
-0.330
-0.360
-0.340
-0.350
-0.330
-0.330
-0.360
-0.340
-0.320
-0.200
-0.060
0.000
0.050
0.070
0.090
0.070
0.070
0.130
0.140
0.160
0.140
0.140
0.120
0.090
0.110
0.100
0.080
0.110
0.090
0.080
0.010
-0.020
-0.120
-0.140
-0.150
-0.160
-0.140
-0.190
-0.180
-0.190
-0.180
-0.190
-0.200
-0.210
-0.200
-0.260
-0.270
-0.300
-0.270
-0.280
-0.310
-0.280
-0.360
-0.310
-0.280
-0.460
-0.310
-0.270
-0.260
-0.310
-0.230
-0.220
-0.260
-0.260
-0.270
-0.240
-0.230
-0.240
-0.200
-0.210
-0.200
-0.190
-0.180
-0.140
-0.110
-0.140
-0.130
-0.120
-0.090
-0.100
-0.070
-0.060
-0.090
0.000
-0.050
-0.040
0.010
-0.020
0.030
0.020
0.010
0.010
0.000
0.030
0.040
0.040
0.030
0.030
0.100
0.040
0.050
0.030
0.060
0.040
0.070
0.030
0.010
-0.080
-0.270
-0.300
-0.380
-0.360
-0.360
-0.420
-0.380
-0.420
-0.480
-0.620
-0.520
-0.460
-0.430
-0.420
-0.400
-0.370
-0.370
-0.370
-0.380
-0.340
-0.290
-0.210
-0.150
-0.160
-0.150
-0.130
-0.140
-0.100
-0.130
-0.120
-0.090
-0.100
-0.060
-0.070
-0.080
-0.030
-0.040
0.070
0.000
0.070
0.020
0.050
0.080
0.050
0.040
0.020
0.030
0.000
0.010
0.000
-0.020
-0.030
-0.020
-0.030
-0.040
-0.060
-0.090
-0.080
-0.110
-0.110
-0.090
-0.130
-0.110
-0.120
-0.110
-0.180
-0.160
-0.200
-0.230
-0.280
-0.250
-0.240
-0.250
-0.230
-0.240
-0.250
-0.260
-0.270
-0.280
-0.320
-0.320
-0.300
-0.310
-0.300
-0.320
-0.330
-0.340
-0.340
-0.380
-0.330
-0.340
-0.320
-0.350
-0.350
-0.350
-0.340
-0.320
-0.170
-0.050
0.000
0.050
0.070
0.130
0.110
0.110
0.090
0.140
0.140
0.140
0.140
0.120
0.110
0.110
0.110
0.080
0.080
0.040
0.040
0.010
-0.060
-0.120
-0.140
-0.130
-0.150
-0.180
-0.190
-0.240
-0.170
-0.190
-0.180
-0.210
-0.220
-0.190
-0.270
-0.260
-0.250
-0.280
-0.270
-0.290
-0.320
-0.310
-0.280
-0.340
-0.280
-0.340
-0.270
-0.260
-0.250
-0.310
-0.230
-0.260
-0.270
-0.260
-0.250
-0.230
-0.260
-0.190
-0.200
-0.250
-0.190
-0.180
-0.150
-0.140
-0.150
-0.120
-0.120
-0.130
-0.100
-0.090
-0.060
-0.050
-0.040
-0.050
-0.040
-0.030
-0.040
-0.040
-0.010
0.000
0.010
0.000
0.020
0.010
0.040
0.040
0.050
0.060
-0.020
0.010
0.070
0.060
0.060
0.040
0.070
0.050
-0.060
-0.200
-0.290
-0.320
-0.380
-0.380
-0.400
-0.400
-0.420
-0.460
-0.430
-0.460
-0.430
-0.410
-0.400
-0.400
-0.380
-0.370
-0.390
-0.380
-0.360
-0.370
-0.310
-0.230
-0.180
-0.180
-0.170
-0.140
-0.120
-0.160
-0.130
-0.100
-0.110
-0.120
-0.110
-0.100
-0.070
-0.020
-0.030
-0.010
-0.070
0.010
0.040
0.020
0.030
0.040
0.050
0.040
0.010
0.030
-0.020
-0.240
-0.060
-0.070
0.000
-0.010
-0.020
-0.060
-0.050
-0.060
-0.070
-0.080
-0.090
-0.110
-0.120
-0.160
-0.140
-0.150
-0.140
-0.150
-0.210
-0.200
-0.240
-0.220
-0.280
-0.270
-0.250
-0.250
-0.290
-0.300
-0.310
-0.290
-0.300
-0.310
-0.340
-0.320
-0.360
-0.360
-0.340
-0.370
-0.380
-0.350
-0.360
-0.340
-0.350
-0.350
-0.350
-0.340
-0.320
-0.170
-0.030
0.010
0.050
0.090
0.050
0.070
0.110
0.120
0.140
0.120
0.140
0.040
0.110
0.110
0.090
0.120
0.100
0.110
0.110
0.030
0.030
-0.060
-0.090
-0.140
-0.150
-0.120
-0.190
-0.190
-0.180
-0.190
-0.200
-0.210
-0.180
-0.210
-0.180
-0.210
-0.270
-0.260
-0.290
-0.280
-0.270
-0.300
-0.330
-0.360
-0.260
-0.270
-0.310
-0.300
-0.280
-0.220
-0.280
-0.250
-0.280
-0.300
-0.290
-0.240
-0.250
-0.220
-0.220
-0.210
-0.240
-0.230
-0.180
-0.140
-0.170
-0.120
-0.150
-0.080
-0.110
-0.080
-0.070
-0.140
-0.050
-0.080
-0.030
-0.020
-0.030
0.020
0.010
0.000
0.050
0.030
0.040
0.030
0.030
0.040
0.030
0.050
0.060
0.060
0.200
0.070
0.060
0.060
0.060
0.070
0.030
-0.010
-0.200
-0.270
-0.340
-0.380
-0.380
-0.400
-0.420
-0.430
-0.480
-0.460
-0.460
-0.430
-0.440
-0.400
-0.380
-0.390
-0.430
-0.400
-0.400
-0.430
-0.350
-0.340
-0.220
-0.180
-0.190
-0.160
-0.140
-0.150
-0.220
-0.140
-0.110
-0.120
-0.090
-0.100
-0.110
-0.080
-0.030
0.030
-0.050
0.030
0.040
0.030
0.060
0.030
0.030
-0.190
0.030
0.020
0.010
0.010
0.000
-0.030
0.010
-0.030
-0.020
-0.030
-0.070
-0.080
-0.060
-0.060
-0.090
-0.100
-0.090
-0.170
-0.170
-0.180
-0.190
-0.200
-0.180
-0.220
-0.230
-0.210
-0.270
-0.230
-0.240
-0.250
-0.290
-0.270
-0.310
-0.320
-0.320
-0.300
-0.340
-0.370
-0.320
-0.330
-0.340
-0.340
-0.350
-0.630
-0.410
-0.340
-0.370
-0.370
-0.330
-0.340
-0.340
-0.340
-0.150
-0.050
0.030
0.070
0.090
0.090
0.070
0.100
0.120
0.120
0.160
0.140
0.090
0.110
0.130
0.120
0.120
0.130
0.110
0.100
-0.010
-0.060
-0.150
-0.180
-0.150
-0.180
-0.200
-0.190
-0.200
-0.190
-0.200
-0.190
-0.220
-0.190
-0.210
-0.270
-0.250
-0.280
-0.270
-0.280
-0.290
-0.280
-0.310
-0.300
-0.310
-0.360
-0.450
-0.340
-0.310
-0.250
-0.280
-0.220
-0.260
-0.270
-0.280
-0.200
-0.230
-0.220
-0.170
-0.240
-0.180
-0.190
-0.160
-0.150
-0.180
-0.140
-0.130
-0.080
-0.110
-0.100
-0.090
-0.080
-0.070
-0.060
-0.030
-0.040
-0.030
0.000
0.010
-0.010
0.000
0.010
0.000
0.030
0.030
0.080
0.030
0.070
0.060
0.060
0.070
0.030
0.040
0.040
0.040
0.070
0.030
-0.100
-0.270
-0.330
-0.350
-0.400
-0.470
-0.420
-0.400
-0.410
-0.460
-0.430
-0.430
-0.410
-0.420
-0.400
-0.380
-0.390
-0.410
-0.370
-0.380
-0.370
-0.350
-0.300
-0.190
-0.160
-0.150
-0.170
-0.110
-0.120
-0.110
-0.100
-0.110
-0.050
-0.100
-0.090
-0.080
-0.070
-0.040
0.020
0.010
0.010
0.040
0.010
0.040
0.030
0.020
0.030
0.010
-0.020
-0.030
-0.040
-0.030
-0.030
-0.040
0.000
-0.040
-0.020
-0.070
-0.080
-0.060
-0.140
-0.120
-0.100
-0.110
-0.150
-0.160
-0.170
-0.180
-0.170
-0.180
-0.190
-0.230
-0.260
-0.220
-0.230
-0.270
-0.280
-0.290
-0.270
-0.310
-0.310
-0.290
-0.330
-0.340
-0.340
-0.320
-0.330
-0.330
-0.320
-0.350
-0.350
-0.360
-0.360
-0.370
-0.350
-0.370
-0.340
-0.360
-0.320
-0.130
-0.050
0.000
0.070
0.090
0.070
0.070
0.100
0.120
0.140
0.140
0.100
0.100
0.110
0.130
0.100
0.100
0.100
0.110
0.110
0.030
0.020
-0.040
-0.110
-0.130
-0.150
-0.140
-0.190
-0.180
-0.190
-0.190
-0.180
-0.210
-0.200
-0.210
-0.250
-0.210
-0.270
-0.300
-0.270
-0.290
-0.280
-0.310
-0.320
-0.310
-0.350
-0.270
-0.300
-0.260
-0.280
-0.270
-0.210
-0.260
-0.200
-0.240
-0.310
-0.270
-0.240
-0.230
-0.240
-0.190
-0.190
-0.200
-0.130
-0.120
-0.150
-0.200
-0.150
-0.090
-0.080
-0.050
-0.080
-0.070
-0.040
-0.010
-0.020
-0.010
0.000
-0.020
-0.010
0.040
0.030
0.020
0.000
0.070
0.040
0.040
0.050
0.040
0.060
0.050
0.050
0.050
0.040
0.040
0.030
0.050
-0.080
-0.270
-0.270
-0.360
-0.380
-0.380
-0.400
-0.400
-0.450
-0.460
-0.480
-0.480
-0.430
-0.430
-0.420
-0.380
-0.360
-0.390
-0.390
-0.420
-0.400
-0.350
-0.260
-0.210
-0.160
-0.160
-0.150
-0.140
-0.120
-0.110
-0.130
-0.100
-0.090
-0.100
-0.090
-0.100
-0.070
-0.040
-0.030
0.050
0.000
0.050
0.290
0.100
0.050
0.060
0.050
0.020
0.030
0.010
0.000
-0.010
-0.040
0.020
-0.050
-0.010
-0.020
-0.060
-0.100
-0.090
-0.100
-0.110
-0.120
-0.140
-0.170
-0.130
-0.170
-0.150
-0.160
-0.200
-0.280
-0.230
-0.240
-0.250
-0.260
-0.270
-0.250
-0.290
-0.290
-0.300
-0.280
-0.290
-0.330
-0.340
-0.340
-0.300
-0.360
-0.360
-0.370
-0.350
-0.330
-0.360
-0.340
-0.340
-0.350
-0.350
-0.360
-0.340
-0.340
-0.170
-0.030
0.000
0.070
0.090
0.070
0.090
0.070
0.110
0.140
0.120
0.120
0.100
0.090
0.090
0.090
0.100
0.100
0.110
0.090
0.050
-0.070
-0.100
-0.110
-0.140
-0.130
-0.180
-0.150
-0.190
-0.200
-0.190
-0.200
-0.190
-0.180
-0.210
-0.200
-0.210
-0.270
-0.280
-0.310
-0.260
-0.290
-0.200
-0.220
-0.250
-0.330
-0.270
-0.310
-0.210
-0.230
-0.290
-0.230
-0.250
-0.280
-0.280
-0.250
-0.260
-0.250
-0.210
-0.260
-0.190
-0.240
-0.190
-0.170
-0.140
-0.130
-0.140
-0.130
-0.100
-0.150
-0.120
-0.110
-0.070
-0.040
-0.010
-0.040
-0.020
0.010
-0.020
-0.010
0.020
0.010
0.040
0.000
0.050
0.020
0.060
0.050
0.080
0.040
0.070
0.050
0.050
0.040
0.060
0.070
0.030
0.010
-0.140
-0.240
-0.300
-0.340
-0.400
-0.380
-0.400
-0.400
-0.420
-0.460
-0.460
-0.460
-0.430
-0.410
-0.400
-0.400
-0.390
-0.390
-0.390
-0.400
-0.390
-0.330
-0.320
-0.190
-0.180
-0.170
-0.180
-0.110
-0.100
-0.110
-0.100
-0.110
-0.080
-0.090
-0.080
-0.050
-0.020
0.020
0.010
0.040
0.050
0.060
0.070
0.060
0.050
0.030
0.040
0.030
0.020
0.010
-0.010
-0.020
-0.030
-0.040
0.000
-0.050
-0.080
-0.070
-0.050
-0.100
-0.110
-0.070
-0.100
-0.140
-0.160
-0.190
-0.180
-0.190
-0.170
-0.210
-0.190
-0.230
-0.210
-0.270
-0.320
-0.270
-0.280
-0.290
-0.300
-0.310
-0.320
-0.300
-0.330
-0.340
-0.320
-0.330
-0.310
-0.340
-0.340
-0.380
-0.360
-0.300
-0.340
-0.350
-0.350
-0.360
-0.340
-0.300
-0.090
-0.020
0.030
0.090
0.070
0.070
0.090
0.090
0.110
0.130
0.140
0.120
0.100
0.120
0.110
0.110
0.090
0.100
0.060
0.070
0.020
-0.010
-0.060
-0.120
-0.140
-0.150
-0.170
-0.090
-0.250
-0.180
-0.190
-0.200
-0.200
-0.210
-0.220
-0.190
-0.250
-0.260
-0.250
-0.290
-0.300
-0.290
-0.280
-0.290
-0.260
-0.310
-0.290
-0.260
-0.300
-0.260
-0.230
-0.280
-0.290
-0.260
-0.290
-0.280
-0.200
-0.250
-0.240
-0.230
-0.190
-0.200
-0.210
-0.180
-0.150
-0.180
-0.120
-0.130
-0.160
-0.110
-0.080
-0.110
-0.100
-0.090
-0.040
-0.070
-0.040
-0.050
-0.020
0.010
0.000
-0.050
-0.030
0.020
0.050
0.040
0.020
0.050
0.030
0.080
0.090
0.050
0.050
0.080
0.040
0.050
0.050
0.030
-0.100
-0.260
-0.320
-0.340
-0.360
-0.400
-0.400
-0.420
-0.420
-0.450
-0.470
-0.460
-0.430
-0.410
-0.390
-0.380
-0.400
-0.390
-0.390
-0.400
-0.380
-0.350
-0.260
-0.250
-0.200
-0.180
-0.170
-0.160
-0.150
-0.110
-0.110
-0.100
-0.200
-0.160
-0.110
-0.100
-0.070
0.010
-0.050
-0.010
0.040
0.030
0.030
0.060
0.030
0.020
0.030
0.040
0.000
0.030
0.000
-0.010
-0.020
-0.060
0.000
-0.040
-0.050
-0.040
-0.050
-0.060
-0.100
-0.080
-0.130
-0.110
-0.120
-0.160
-0.140
-0.190
-0.200
-0.180
-0.190
-0.230
-0.240
-0.250
-0.260
-0.240
-0.280
-0.330
-0.300
-0.310
-0.320
-0.320
-0.330
-0.270
-0.320
-0.320
-0.330
-0.340
-0.430
-0.380
-0.380
-0.360
-0.360
-0.350
-0.330
-0.320
-0.320
-0.200
-0.070
0.000
0.050
0.070
0.070
0.070
0.110
0.090
0.110
0.150
0.110
0.140
0.120
0.100
0.120
0.090
0.090
0.090
0.100
0.080
0.020
0.010
-0.110
-0.120
-0.170
-0.160
-0.170
-0.200
-0.180
-0.230
-0.200
-0.210
-0.220
-0.210
-0.240
-0.230
-0.220
-0.300
-0.290
-0.280
-0.290
-0.300
-0.310
-0.320
-0.470
-0.380
-0.330
-0.290
-0.310
-0.300
-0.210
-0.290
-0.260
-0.270
-0.290
-0.280
-0.270
-0.260
-0.260
-0.250
-0.220
-0.230
-0.200
-0.160
-0.170
-0.160
-0.150
-0.140
-0.130
-0.120
-0.080
-0.070
-0.060
-0.050
-0.040
-0.010
-0.040
-0.010
-0.020
0.010
0.010
0.020
0.010
0.020
0.050
0.030
0.000
0.050
0.050
0.060
0.020
0.050
0.030
0.040
0.060
0.050
0.050
0.010
-0.120
-0.240
-0.450
-0.420
-0.400
-0.360
-0.380
-0.420
-0.400
-0.420
-0.450
-0.450
-0.430
-0.390
-0.370
-0.370
-0.380
-0.400
-0.390
-0.390
-0.380
-0.320
-0.260
-0.200
-0.170
-0.140
-0.150
-0.130
-0.140
-0.120
-0.110
-0.100
-0.110
-0.090
-0.120
-0.090
-0.060
-0.050
-0.020
-0.040
0.020
0.030
0.060
0.070
0.040
0.050
0.060
0.020
0.010
-0.020
0.010
-0.050
0.000
-0.010
-0.040
0.000
-0.050
-0.030
-0.070
-0.120
-0.140
-0.110
-0.090
-0.100
-0.110
-0.130
-0.140
-0.130
-0.160
-0.170
-0.180
-0.220
-0.200
-0.240
-0.230
-0.270
-0.270
-0.250
-0.290
-0.300
-0.310
-0.290
-0.300
-0.360
-0.310
-0.350
-0.330
-0.310
-0.340
-0.380
-0.380
-0.360
-0.360
-0.370
-0.350
-0.360
-0.360
-0.340
-0.300
-0.120
-0.060
0.050
0.070
0.030
0.070
0.070
0.090
0.110
0.130
0.110
0.110
0.140
0.120
0.060
0.050
0.090
0.120
0.080
0.100
0.070
-0.010
-0.050
-0.100
-0.110
-0.160
-0.130
-0.160
-0.190
-0.190
-0.180
-0.170
-0.220
-0.230
-0.180
-0.230
-0.270
-0.260
-0.250
-0.280
-0.290
-0.300
-0.280
-0.360
-0.280
-0.360
-0.280
-0.320
-0.230
-0.260
-0.320
-0.240
-0.250
-0.280
-0.310
-0.300
-0.250
-0.230
-0.220
-0.210
-0.220
-0.200
-0.190
-0.140
-0.170
-0.180
-0.160
-0.110
-0.120
-0.130
-0.080
-0.070
-0.080
-0.050
-0.060
-0.030
-0.120
-0.050
-0.020
0.010
0.020
0.010
0.010
0.020
0.030
0.040
0.060
0.030
0.100
0.060
0.070
0.050
0.080
0.060
0.060
0.070
0.070
0.030
-0.110
-0.260
-0.300
-0.380
-0.380
-0.420
-0.400
-0.400
-0.450
-0.420
-0.450
-0.450
-0.430
-0.430
-0.410
-0.390
-0.360
-0.360
-0.390
-0.370
-0.380
-0.300
-0.310
-0.170
-0.190
-0.220
-0.170
-0.130
-0.140
-0.150
-0.090
-0.100
-0.130
-0.100
-0.110
-0.180
-0.090
-0.040
0.040
0.050
0.040
0.070
0.060
0.070
0.080
0.040
0.050
0.020
0.050
0.020
0.000
-0.010
-0.020
-0.010
-0.030
-0.010
-0.020
-0.060
-0.070
-0.060
-0.070
-0.110
-0.090
-0.090
-0.120
-0.130
-0.170
-0.200
-0.190
-0.180
-0.170
-0.230
-0.240
-0.270
-0.280
-0.270
-0.250
-0.290
-0.300
-0.310
-0.280
-0.290
-0.330
-0.360
-0.350
-0.350
-0.360
-0.340
-0.370
-0.350
-0.350
-0.360
-0.220
-0.400
-0.440
-0.380
-0.360
-0.320
-0.140
-0.040
0.030
0.090
0.110
0.070
0.090
0.090
0.110
0.110
0.110
0.150
0.130
0.120
0.120
0.100
0.110
0.090
0.100
0.100
0.090
0.070
0.010
-0.070
-0.150
-0.160
-0.160
-0.170
-0.160
-0.170
-0.200
-0.220
-0.210
-0.180
-0.230
-0.200
-0.190
-0.270
-0.240
-0.290
-0.280
-0.280
-0.290
-0.320
-0.330
-0.350
-0.310
-0.300
-0.240
-0.300
-0.310
-0.280
-0.210
-0.250
-0.320
-0.370
-0.290
-0.260
-0.250
-0.240
-0.190
-0.210
-0.070
-0.170
-0.160
-0.080
-0.150
-0.100
0.060
-0.060
-0.090
-0.060
-0.090
-0.080
-0.090
-0.100
-0.070
-0.040
-0.050
-0.020
-0.010
-0.040
-0.010
0.000
0.020
0.010
0.020
0.040
0.030
0.040
0.040
0.070
0.030
0.080
0.040
0.050
0.070
0.030
0.050
0.020
-0.020
-0.210
-0.320
-0.340
-0.360
-0.400
-0.380
-0.400
-0.420
-0.420
-0.450
-0.560
-0.460
-0.390
-0.400
-0.380
-0.380
-0.430
-0.390
-0.360
-0.340
-0.260
-0.210
-0.150
-0.180
-0.130
-0.160
-0.140
-0.100
-0.110
-0.120
-0.110
-0.100
-0.110
-0.100
-0.090
-0.060
0.000
0.030
0.040
0.050
0.040
0.050
0.030
0.020
0.010
0.020
0.030
-0.010
0.000
-0.010
-0.040
-0.020
-0.050
-0.040
-0.050
-0.030
-0.080
-0.090
-0.120
-0.110
-0.100
-0.140
-0.170
-0.160
-0.210
-0.200
-0.200
-0.210
-0.190
-0.200
-0.190
-0.250
-0.230
-0.290
-0.320
-0.290
-0.300
-0.280
-0.320
-0.320
-0.330
-0.310
-0.320
-0.300
-0.330
-0.340
-0.370
-0.350
-0.390
-0.360
-0.350
-0.370
-0.370
-0.360
-0.340
-0.320
-0.330
-0.120
-0.040
0.050
0.050
0.170
0.090
0.070
0.110
0.130
0.130
0.150
0.130
0.120
0.100
0.100
0.090
0.090
0.100
0.100
0.070
0.040
-0.010
-0.090
-0.120
-0.140
-0.150
-0.210
-0.160
-0.230
-0.180
-0.170
-0.200
-0.180
-0.210
-0.200
-0.230
-0.270
-0.450
-0.280
-0.270
-0.280
-0.270
-0.280
-0.360
-0.280
-0.310
-0.290
-0.240
-0.300
-0.290
-0.240
-0.260
-0.250
-0.300
-0.230
-0.270
-0.220
-0.230
-0.220
-0.200
-0.230
-0.200
-0.170
-0.160
-0.140
-0.150
-0.100
-0.130
-0.100
-0.090
-0.060
-0.070
-0.050
-0.040
-0.050
0.000
-0.010
-0.010
0.000
0.010
0.000
0.010
0.020
0.020
0.010
0.040
0.030
0.030
0.060
0.040
0.050
0.050
0.040
0.080
0.050
0.070
0.070
0.030
-0.110
-0.320
-0.320
-0.340
-0.360
-0.400
-0.380
-0.400
-0.420
-0.450
-0.450
-0.470
-0.410
-0.410
-0.390
-0.360
-0.380
-0.380
-0.410
-0.370
-0.360
-0.310
-0.260
-0.210
-0.170
-0.200
-0.130
-0.140
-0.080
-0.100
-0.110
-0.080
-0.110
-0.100
-0.070
-0.100
-0.050
-0.040
0.040
0.030
0.040
0.070
0.030
0.040
0.030
0.040
0.030
0.040
0.020
0.010
-0.020
-0.030
-0.020
-0.020
-0.030
-0.010
-0.050
-0.070
-0.080
-0.090
-0.070
-0.090
-0.210
-0.160
-0.150
-0.130
-0.140
-0.190
-0.150
-0.180
-0.190
-0.180
-0.210
-0.250
-0.230
-0.270
-0.280
-0.260
-0.320
-0.280
-0.320
-0.330
-0.330
-0.340
-0.320
-0.360
-0.360
-0.340
-0.340
-0.350
-0.360
-0.340
-0.350
-0.370
-0.370
-0.380
-0.340
-0.320
-0.310
-0.080
-0.040
0.050
0.070
0.070
0.090
0.070
0.090
0.110
0.090
0.130
0.100
0.100
0.120
0.100
0.110
0.110
0.120
0.100
0.090
-0.020
-0.030
-0.080
-0.120
-0.160
-0.130
-0.170
-0.160
-0.190
-0.160
-0.150
-0.200
-0.190
-0.200
-0.190
-0.200
-0.240
-0.270
-0.280
-0.270
-0.280
-0.290
-0.300
-0.310
-0.350
-0.300
-0.270
-0.280
-0.230
-0.220
-0.270
-0.260
-0.290
-0.260
-0.280
-0.290
-0.260
-0.250
-0.210
-0.220
-0.250
-0.220
-0.190
-0.130
-0.120
-0.110
-0.140
-0.130
-0.140
-0.090
-0.090
-0.060
-0.090
-0.080
-0.090
-0.040
-0.030
-0.020
-0.020
0.010
0.020
0.010
0.020
0.040
-0.220
-0.020
0.010
0.030
0.060
0.060
0.050
0.050
0.060
0.040
0.070
0.050
0.050
0.030
-0.020
-0.240
-0.300
-0.340
-0.340
-0.380
-0.380
-0.400
-0.420
-0.420
-0.470
-0.420
-0.410
-0.430
-0.370
-0.400
-0.380
-0.410
-0.410
-0.380
-0.380
-0.330
-0.260
-0.190
-0.160
-0.180
-0.150
-0.140
-0.150
-0.130
-0.130
-0.100
-0.110
-0.100
-0.110
-0.100
-0.070
-0.080
0.020
-0.010
0.060
0.060
0.050
0.040
0.030
0.020
-0.050
0.010
0.000
0.010
0.000
-0.030
-0.030
0.010
-0.030
-0.010
-0.030
-0.040
-0.030
-0.110
-0.070
-0.090
-0.100
-0.110
-0.100
-0.160
-0.180
-0.190
-0.170
-0.180
-0.190
-0.250
-0.210
-0.220
-0.210
-0.270
-0.250
-0.260
-0.270
-0.280
-0.290
-0.330
-0.330
-0.310
-0.300
-0.310
-0.310
-0.340
-0.340
-0.330
-0.360
-0.360
-0.350
-0.370
-0.370
-0.380
-0.340
-0.340
-0.350
-0.100
-0.040
0.070
0.090
0.090
0.090
0.070
-0.060
0.050
0.110
0.130
0.140
0.120
0.100
0.130
0.110
0.110
0.120
0.060
0.110
0.070
-0.010
-0.080
-0.150
-0.110
-0.150
-0.160
-0.180
-0.190
-0.180
-0.190
-0.180
-0.230
-0.200
-0.190
-0.250
-0.240
-0.290
-0.260
-0.270
-0.280
-0.270
-0.300
-0.290
-0.290
-0.300
-0.290
-0.280
-0.230
-0.250
-0.270
-0.230
-0.290
-0.250
-0.260
-0.290
-0.260
-0.250
-0.250
-0.240
-0.230
-0.220
-0.160
-0.130
-0.160
-0.110
-0.140
-0.210
-0.140
-0.100
-0.070
-0.080
-0.050
-0.040
-0.050
-0.040
0.010
0.000
0.000
0.030
0.020
0.030
0.040
0.020
0.030
0.040
0.050
0.070
0.060
0.040
0.030
0.050
0.040
0.040
0.070
0.050
0.030
0.010
-0.150
-0.260
-0.340
-0.380
-0.400
-0.380
-0.380
-0.420
-0.420
-0.450
-0.470
-0.460
-0.410
-0.410
-0.430
-0.420
-0.380
-0.430
-0.390
-0.400
-0.360
-0.330
-0.260
-0.170
-0.310
-0.210
-0.150
-0.140
-0.100
-0.130
-0.100
-0.100
-0.090
-0.080
-0.110
-0.080
-0.070
-0.040
0.000
0.030
0.030
0.040
0.050
0.040
0.050
0.060
0.030
0.030
0.020
-0.010
0.000
0.000
-0.010
-0.040
-0.030
-0.010
-0.060
-0.070
-0.050
-0.060
-0.110
-0.090
-0.100
-0.110
-0.150
-0.160
-0.180
-0.160
-0.200
-0.210
-0.220
-0.230
-0.240
-0.270
-0.260
-0.270
-0.280
-0.260
-0.270
-0.310
-0.320
-0.330
-0.300
-0.310
-0.350
-0.400
-0.360
-0.370
-0.340
-0.350
-0.340
-0.340
-0.360
-0.350
-0.330
-0.340
-0.340
-0.320
-0.300
-0.120
-0.020
0.030
0.110
0.070
0.090
0.090
0.050
0.130
0.130
0.140
0.140
0.120
0.080
0.130
0.110
0.120
0.100
0.110
0.090
0.050
-0.030
-0.120
-0.140
-0.180
-0.100
-0.180
-0.170
-0.150
-0.200
-0.210
-0.200
-0.230
-0.220
-0.210
-0.250
-0.280
-0.270
-0.280
-0.270
-0.300
-0.350
-0.400
-0.370
-0.250
-0.280
-0.270
-0.260
-0.260
-0.230
-0.270
-0.230
-0.290
-0.290
-0.280
-0.250
-0.220
-0.240
-0.210
-0.240
-0.210
-0.200
-0.180
-0.170
-0.120
-0.150
-0.120
-0.110
-0.090
-0.100
-0.050
-0.020
-0.050
-0.060
-0.030
-0.020
-0.010
0.000
-0.020
-0.010
0.000
0.030
0.020
0.020
0.030
0.060
0.030
0.050
0.060
0.060
0.070
0.050
0.040
0.040
0.060
0.030
0.010
-0.120
-0.390
-0.360
-0.380
-0.380
-0.380
-0.420
-0.400
-0.420
-0.450
-0.450
-0.430
-0.410
-0.390
-0.390
-0.380
-0.380
-0.360
-0.390
-0.370
-0.360
-0.320
-0.260
-0.210
-0.170
-0.180
-0.170
-0.130
-0.110
-0.100
-0.110
-0.100
-0.090
-0.120
-0.070
-0.080
-0.070
-0.020
-0.030
0.050
0.040
0.030
0.040
0.050
0.040
0.070
0.050
0.000
0.010
0.000
-0.010
-0.010
0.000
0.020
-0.020
-0.030
-0.050
-0.310
-0.130
-0.080
-0.100
-0.110
-0.090
-0.130
-0.090
-0.120
-0.140
-0.130
-0.160
-0.200
-0.180
-0.190
-0.200
-0.210
-0.250
-0.260
-0.270
-0.250
-0.260
-0.300
-0.310
-0.320
-0.330
-0.330
-0.310
-0.350
-0.330
-0.330
-0.340
-0.340
-0.380
-0.340
-0.340
-0.340
-0.330
-0.350
-0.340
-0.320
-0.340
-0.110
-0.060
0.030
0.070
0.070
0.090
0.070
0.090
0.130
0.090
0.100
0.140
0.120
0.160
0.110
0.150
0.110
0.120
0.100
0.110
0.040
0.050
-0.050
-0.120
-0.110
-0.130
-0.170
-0.160
-0.170
-0.180
-0.190
-0.210
-0.180
-0.210
-0.160
-0.230
-0.250
-0.260
-0.270
-0.280
-0.330
-0.270
-0.300
-0.290
-0.350
-0.340
-0.350
-0.340
-0.300
-0.260
-0.300
-0.240
-0.290
-0.280
-0.290
-0.260
-0.270
-0.270
-0.220
-0.250
-0.240
-0.200
-0.170
-0.140
-0.170
-0.140
-0.320
-0.190
-0.140
-0.110
-0.100
-0.090
-0.080
0.060
0.000
-0.050
-0.020
-0.010
-0.020
0.030
0.010
0.000
0.010
0.000
-0.010
0.010
0.040
0.050
0.050
0.060
0.060
0.070
0.030
0.080
0.060
0.040
0.030
0.010
-0.010
-0.220
-0.300
-0.340
-0.360
-0.380
-0.380
-0.450
-0.400
-0.470
-0.460
-0.480
-0.430
-0.410
-0.420
-0.400
-0.380
-0.410
-0.390
-0.420
-0.420
-0.370
-0.260
-0.210
-0.180
-0.140
-0.150
-0.140
-0.100
-0.100
-0.110
-0.100
-0.110
-0.080
-0.110
-0.060
-0.030
-0.060
0.000
0.030
0.040
0.030
0.060
0.050
0.030
0.060
0.010
0.040
0.010
0.010
-0.020
0.010
-0.020
-0.030
0.000
-0.040
-0.050
-0.030
-0.080
-0.090
-0.070
-0.130
-0.120
-0.140
-0.150
-0.160
-0.170
-0.180
-0.140
-0.200
-0.210
-0.290
-0.260
-0.250
-0.260
-0.270
-0.280
-0.290
-0.260
-0.270
-0.280
-0.320
-0.330
-0.290
-0.290
-0.320
-0.330
-0.360
-0.340
-0.380
-0.330
-0.360
-0.360
-0.350
-0.330
-0.350
-0.360
-0.320
-0.300
-0.090
-0.020
0.030
0.090
0.070
0.070
0.070
0.090
0.150
0.130
0.140
0.120
0.120
0.100
0.090
0.090
0.120
0.100
0.100
0.090
0.050
-0.030
-0.210
-0.150
-0.160
-0.130
-0.160
-0.180
-0.170
-0.160
-0.190
-0.200
-0.170
-0.200
-0.190
-0.220
-0.260
-0.270
-0.260
-0.290
-0.280
-0.290
-0.300
-0.330
-0.300
-0.280
-0.360
-0.310
-0.270
-0.240
-0.240
-0.300
-0.290
-0.300
-0.280
-0.270
-0.240
-0.270
-0.260
-0.240
-0.230
-0.220
-0.170
-0.160
-0.160
-0.150
-0.160
-0.110
-0.180
-0.130
-0.120
-0.070
0.220
-0.050
-0.060
-0.030
-0.040
-0.030
0.000
-0.030
0.020
-0.010
0.000
-0.020
0.010
0.060
0.040
0.050
0.060
0.040
0.050
0.050
0.040
0.080
0.080
0.070
0.030
0.030
-0.010
-0.130
-0.190
-0.300
-0.340
-0.340
-0.380
-0.380
-0.380
-0.420
-0.430
-0.430
-0.410
-0.430
-0.400
-0.380
-0.380
-0.390
-0.390
-0.380
-0.360
-0.370
-0.320
-0.170
-0.200
-0.190
-0.130
-0.140
-0.120
-0.110
-0.120
-0.110
-0.090
-0.100
-0.110
-0.060
-0.070
-0.040
0.040
0.000
0.030
0.040
0.050
0.060
0.030
0.020
0.020
0.010
0.020
-0.010
0.000
-0.060
-0.030
-0.040
0.000
-0.050
-0.080
-0.090
-0.080
-0.090
-0.110
-0.120
-0.130
-0.140
-0.150
-0.170
-0.180
-0.160
-0.170
-0.310
-0.240
-0.230
-0.240
-0.220
-0.210
-0.270
-0.280
-0.290
-0.300
-0.280
-0.320
-0.300
-0.340
-0.310
-0.320
-0.330
-0.360
-0.340
-0.350
-0.350
-0.340
-0.360
-0.370
-0.350
-0.370
-0.360
-0.340
-0.340
-0.310
-0.080
0.000
0.030
0.070
0.090
0.070
0.050
0.090
0.130
0.110
0.110
0.410
0.200
0.140
0.130
0.130
0.120
0.100
0.110
0.090
-0.110
-0.050
-0.120
-0.140
-0.140
-0.150
-0.160
-0.170
-0.170
-0.180
-0.210
-0.200
-0.210
-0.180
-0.210
-0.220
-0.240
-0.290
-0.280
-0.270
-0.270
-0.280
-0.290
-0.320
-0.310
-0.350
-0.330
-0.270
-0.310
-0.280
-0.270
-0.290
-0.260
-0.270
-0.260
-0.260
-0.230
-0.220
-0.230
-0.210
-0.200
-0.210
-0.200
-0.190
-0.150
-0.140
-0.130
-0.140
-0.110
-0.100
-0.110
-0.140
-0.090
-0.060
-0.070
-0.040
-0.010
-0.020
0.010
0.040
0.010
0.020
0.020
0.050
0.020
0.050
0.070
0.060
0.060
0.070
0.030
0.060
0.060
0.050
0.070
0.070
0.060
0.020
-0.150
-0.260
-0.320
-0.320
-0.400
-0.380
-0.420
-0.420
-0.420
-0.420
-0.450
-0.470
-0.430
-0.430
-0.390
-0.360
-0.380
-0.390
-0.390
-0.380
-0.380
-0.410
-0.270
-0.190
-0.180
-0.190
-0.140
-0.140
-0.120
-0.130
-0.100
-0.110
-0.120
-0.090
-0.100
-0.090
-0.060
0.000
0.030
0.060
0.070
0.060
0.040
0.050
0.040
0.030
0.040
0.000
-0.010
-0.020
-0.010
-0.030
-0.020
-0.050
-0.040
-0.060
-0.090
-0.080
-0.090
-0.110
-0.120
-0.130
-0.110
-0.150
-0.140
-0.180
-0.190
-0.220
-0.230
-0.190
-0.200
-0.250
-0.230
-0.290
-0.250
-0.290
-0.380
-0.330
-0.310
-0.320
-0.330
-0.340
-0.320
-0.350
-0.330
-0.370
-0.350
-0.350
-0.360
-0.360
-0.350
-0.350
-0.360
-0.360
-0.360
-0.350
-0.310
-0.310
-0.100
-0.010
0.060
0.040
0.100
0.080
0.080
0.080
0.100
0.150
0.110
0.110
0.110
0.100
0.080
0.100
0.090
0.070
0.080
0.080
0.020
-0.030
-0.130
-0.100
-0.140
-0.160
-0.170
-0.180
-0.150
-0.220
-0.250
-0.220
-0.210
-0.200
-0.210
-0.220
-0.210
-0.230
-0.260
-0.290
-0.280
-0.290
-0.280
-0.320
-0.310
-0.330
-0.270
-0.310
-0.290
-0.250
-0.240
-0.290
-0.240
-0.290
-0.280
-0.260
-0.250
-0.200
-0.250
-0.230
-0.200
-0.230
-0.160
-0.160
-0.110
-0.140
-0.110
-0.120
-0.130
-0.090
-0.080
-0.070
-0.060
-0.070
-0.080
-0.050
-0.060
-0.010
-0.020
0.030
0.000
0.040
0.030
0.020
-0.140
-0.030
0.040
0.050
0.090
0.080
0.080
0.090
0.070
0.100
0.080
0.080
0.070
0.050
-0.140
-0.270
-0.310
-0.350
-0.390
-0.390
-0.410
-0.390
-0.410
-0.440
-0.440
-0.410
-0.400
-0.400
-0.400
-0.370
-0.390
-0.380
-0.380
-0.370
-0.370
-0.320
-0.260
-0.200
-0.150
-0.180
-0.130
-0.140
-0.110
-0.100
-0.130
-0.100
-0.110
-0.100
-0.110
-0.100
-0.030
-0.040
-0.010
0.020
0.050
0.060
-0.100
0.020
0.040
0.010
0.020
0.010
0.030
0.000
0.010
-0.020
0.010
-0.030
-0.040
-0.010
-0.070
-0.080
-0.090
-0.080
-0.120
-0.100
-0.110
-0.130
-0.170
-0.150
-0.190
-0.180
-0.220
-0.200
-0.240
-0.250
-0.230
-0.270
-0.250
-0.290
-0.300
-0.280
-0.320
-0.300
-0.310
-0.370
-0.330
-0.330
-0.390
-0.380
-0.380
-0.390
-0.370
-0.370
-0.410
-0.360
-0.370
-0.370
-0.470
-0.400
-0.340
-0.360
-0.310
-0.100
-0.040
0.050
0.050
0.090
0.050
0.070
0.090
0.110
0.140
0.100
0.120
0.100
0.090
0.110
0.100
0.120
0.110
0.090
0.080
0.010
-0.040
-0.130
-0.120
-0.170
-0.180
-0.170
-0.180
-0.190
-0.200
-0.190
-0.180
-0.210
-0.220
-0.210
-0.220
-0.260
-0.270
-0.260
-0.290
-0.270
-0.300
-0.290
-0.300
-0.350
-0.320
-0.280
-0.300
-0.300
-0.240
-0.210
-0.280
-0.230
-0.240
-0.280
-0.330
-0.260
-0.210
-0.210
-0.200
-0.170
-0.150
-0.160
-0.150
-0.120
-0.140
-0.110
-0.080
-0.070
-0.060
-0.070
-0.040
-0.020
-0.030
0.000
0.010
0.020
0.010
0.030
0.000
0.030
0.080
0.070
0.060
0.060
0.050
0.100
0.060
0.090
0.090
0.100
0.060
0.110
0.090
0.070
0.080
0.080
0.040
-0.170
-0.270
-0.330
-0.370
-0.390
-0.370
-0.370
-0.380
-0.400
-0.430
-0.430
-0.430
-0.410
-0.370
-0.490
-0.400
-0.390
-0.370
-0.380
-0.360
-0.350
-0.280
-0.230
-0.180
-0.150
-0.160
-0.160
-0.150
-0.090
-0.100
-0.110
-0.080
-0.090
-0.080
-0.070
-0.100
-0.040
-0.030
0.030
-0.020
0.030
0.030
0.020
0.030
0.020
0.020
0.010
0.020
-0.020
-0.010
0.000
-0.050
-0.030
-0.060
-0.020
-0.040
-0.080
-0.060
-0.110
-0.090
-0.100
-0.150
-0.160
-0.170
-0.180
-0.200
-0.180
-0.220
-0.200
-0.240
-0.230
-0.240
-0.300
-0.330
-0.320
-0.310
-0.320
-0.330
-0.340
-0.320
-0.360
-0.360
-0.370
-0.350
-0.390
-0.360
-0.400
-0.410
-0.380
-0.390
-0.390
-0.400
-0.380
-0.350
-0.390
-0.390
-0.380
-0.360
-0.340
-0.130
-0.050
0.000
0.020
0.040
0.040
0.040
0.060
0.080
0.110
0.110
0.110
0.100
0.080
0.080
0.070
0.070
0.040
0.090
0.020
0.030
-0.040
-0.140
-0.130
-0.170
-0.180
-0.170
-0.180
-0.190
-0.180
-0.170
-0.220
-0.150
-0.310
-0.280
-0.200
-0.260
-0.250
-0.270
-0.260
-0.270
-0.280
-0.260
-0.290
-0.280
-0.240
-0.230
-0.240
-0.290
-0.230
-0.220
-0.250
-0.240
-0.250
-0.210
-0.220
-0.210
-0.210
-0.200
-0.190
-0.190
-0.180
-0.150
-0.100
-0.100
-0.090
-0.080
-0.090
-0.050
-0.060
-0.070
-0.020
-0.030
-0.020
0.030
0.000
0.010
0.020
0.030
0.000
0.070
0.060
0.040
0.050
0.060
0.100
0.110
0.100
0.120
0.070
0.030
0.080
0.100
0.100
0.110
0.070
0.030
-0.210
-0.200
0.270
-0.070
-0.200
-0.280
-0.300
-0.360
-0.370
-0.390
-0.420
-0.420
-0.400
-0.380
-0.360
-0.370
-0.350
-0.360
-0.360
-0.390
-0.360
-0.300
-0.240
-0.190
-0.160
-0.130
-0.130
-0.140
-0.100
-0.110
-0.100
-0.090
-0.080
-0.110
-0.080
-0.080
-0.070
0.010
-0.030
-0.060
0.030
0.020
0.050
0.040
0.020
0.010
0.000
0.020
-0.010
0.020
-0.040
-0.030
0.010
-0.060
-0.050
-0.030
-0.160
-0.110
-0.070
-0.120
-0.100
-0.110
-0.130
-0.170
-0.150
-0.200
-0.210
-0.190
-0.180
-0.210
-0.260
-0.240
-0.250
-0.260
-0.300
-0.310
-0.320
-0.330
-0.340
-0.350
-0.360
-0.370
-0.380
-0.350
-0.390
-0.370
-0.410
-0.410
-0.390
-0.370
-0.430
-0.390
-0.410
-0.390
-0.400
-0.380
-0.380
-0.370
-0.370
-0.120
-0.060
0.010
0.030
0.010
0.010
0.010
0.050
0.070
0.100
0.100
0.060
0.090
0.090
0.070
0.080
0.040
-0.080
0.040
0.040
0.020
-0.050
-0.110
-0.140
-0.130
-0.190
-0.180
-0.190
-0.220
-0.190
-0.220
-0.210
-0.180
-0.210
-0.200
-0.260
-0.250
-0.270
-0.280
-0.270
-0.300
-0.300
-0.310
-0.320
-0.260
-0.270
-0.280
-0.260
-0.300
-0.200
-0.250
-0.260
-0.250
-0.210
-0.240
-0.250
-0.190
-0.220
-0.180
-0.210
-0.160
-0.170
-0.130
-0.140
-0.130
-0.110
-0.100
-0.110
-0.100
-0.070
-0.070
-0.060
-0.010
-0.020
0.010
0.020
0.030
0.040
0.010
-0.040
0.030
0.060
0.060
0.090
0.100
0.070
0.110
0.100
0.130
0.110
0.100
0.100
0.120
0.130
0.090
0.070
0.060
-0.150
-0.220
-0.340
-0.300
-0.340
-0.340
-0.360
-0.360
-0.380
-0.430
-0.410
-0.390
-0.370
-0.370
-0.360
-0.340
-0.370
-0.330
-0.340
-0.340
-0.350
-0.300
-0.190
-0.160
-0.130
-0.140
-0.130
-0.120
-0.120
-0.100
-0.140
-0.100
-0.090
-0.090
-0.080
-0.070
-0.020
0.020
0.050
0.030
0.040
0.030
-0.130
0.020
0.030
0.060
0.050
0.010
0.020
0.020
-0.010
0.000
-0.040
-0.030
-0.040
-0.060
-0.040
-0.050
-0.100
-0.110
-0.100
-0.110
-0.120
-0.130
-0.180
-0.190
-0.200
-0.170
-0.140
-0.210
-0.220
-0.260
-0.280
-0.290
-0.300
-0.280
-0.290
-0.300
-0.340
-0.320
-0.360
-0.390
-0.340
-0.380
-0.360
-0.400
-0.370
-0.410
-0.440
-0.440
-0.400
-0.400
-0.410
-0.410
-0.420
-0.380
-0.380
-0.350
-0.250
-0.220
-0.100
0.010
0.030
0.070
0.050
0.090
0.090
0.090
0.130
0.080
0.100
0.080
0.050
0.070
0.080
0.270
0.090
1.080
23.880
8.800
5.750
3.860
2.610
1.630
0.810
0.190
-0.320
-0.800
-1.080
-1.330
-1.480
-1.580
-1.670
-1.720
-1.730
-1.760
-1.770
-1.780
-1.770
-1.750
-1.790
-1.750
-1.670
-1.640
-1.570
-1.490
-1.430
-1.380
-1.320
-1.270
-1.280
-1.190
-1.160
-1.090
-1.050
-1.000
-0.970
-0.900
-0.870
-0.820
-0.760
-0.770
-0.780
-0.720
-0.620
-0.610
-0.580
-0.540
-0.490
-0.440
-0.410
-0.420
-0.370
-0.330
-0.320
-0.270
-0.280
-0.270
-0.240
-0.210
-0.200
-0.170
-0.140
-0.140
-0.110
-0.120
-0.080
-0.070
-0.060
-0.060
-0.050
-0.070
-0.030
-0.020
-0.020
-0.040
-0.070
-0.280
-0.340
-0.430
-0.430
-0.430
-0.430
-0.430
-0.430
-0.470
-0.460
-0.500
-0.520
-0.520
-0.490
-0.470
-0.480
-0.460
-0.490
-0.400
-0.430
-0.420
-0.320
-0.270
-0.210
-0.310
-0.220
-0.150
-0.140
-0.100
-0.140
-0.080
-0.090
-0.120
-0.110
-0.060
-0.080
-0.070
-0.100
-0.070
-0.010
0.040
0.020
0.050
0.020
0.000
0.010
0.020
0.040
0.030
0.020
0.000
-0.010
-0.040
-0.040
-0.020
-0.010
-0.080
-0.060
-0.120
-0.090
-0.130
-0.110
-0.160
-0.140
-0.150
-0.140
-0.120
-0.150
-0.160
-0.170
-0.160
-0.220
-0.210
-0.240
-0.210
-0.240
-0.270
-0.280
-0.270
-0.300
-0.310
-0.340
-0.340
-0.480
-0.390
-0.370
-0.350
-0.340
-0.370
-0.390
-0.380
-0.380
-0.390
-0.370
-0.370
-0.380
-0.400
-0.340
-0.340
-0.150
-0.060
-0.040
0.030
-0.040
-0.010
0.040
0.080
0.100
0.120
0.120
0.110
0.110
0.100
0.080
0.060
0.130
0.100
0.080
0.050
-0.020
-0.090
-0.140
-0.130
-0.170
-0.170
-0.200
-0.230
-0.220
-0.210
-0.200
-0.210
-0.220
-0.250
-0.270
-0.270
-0.260
-0.250
-0.280
-0.290
-0.290
-0.320
-0.310
-0.300
-0.470
-0.380
-0.330
-0.330
-0.280
-0.310
-0.290
-0.280
-0.290
-0.270
-0.280
-0.270
-0.230
-0.240
-0.250
-0.230
-0.200
-0.230
-0.220
-0.200
-0.190
-0.180
-0.170
-0.150
-0.140
-0.130
-0.120
-0.090
-0.080
-0.070
-0.080
-0.050
-0.020
-0.010
-0.020
0.010
0.040
0.030
0.020
0.060
0.050
0.060
0.040
0.070
0.040
0.060
0.090
0.110
0.090
0.100
0.100
0.080
0.070
0.010
-0.140
-0.230
-0.370
-0.330
-0.310
24.920
9.220
5.830
3.960
2.600
1.550
0.750
0.030
-0.460
-0.880
-1.180
-1.410
-1.630
-1.740
-1.830
-1.820
-1.760
-1.750
-1.670
-1.660
-1.670
-1.620
-1.580
-1.500
-1.470
-1.420
-1.340
-1.310
-1.260
-1.190
-1.140
-1.090
-1.060
-0.960
-0.890
-0.890
-0.790
-0.780
-0.750
-0.730
-0.670
-0.640
-0.590
-0.590
-0.580
-0.540
-0.500
-0.510
-0.500
-0.480
-0.490
-0.430
-0.470
-0.460
-0.430
0.100
-0.250
-0.410
-0.480
-0.500
-0.450
-0.370
-0.360
-0.350
-0.340
-0.340
-0.370
-0.380
-0.390
-0.380
-0.430
-0.420
-0.450
-0.460
-0.470
-0.470
-0.480
-0.470
-0.480
-0.460
-0.470
-0.480
-0.480
-0.450
-0.490
-0.500
-0.480
-0.530
-0.490
-0.470
-0.460
-0.440
-0.410
-0.250
-0.120
-0.090
-0.050
-0.090
-0.070
-0.040
-0.020
0.030
0.030
0.070
0.080
0.040
0.060
0.070
0.030
0.060
0.040
0.050
0.000
-0.030
-0.080
-0.260
-0.200
-0.210
-0.200
-0.170
-0.220
-0.190
-0.180
-0.200
-0.210
-0.210
-0.180
-0.190
-0.200
-0.240
-0.230
-0.190
-0.250
-0.250
-0.240
-0.290
-0.260
-0.250
-0.290
-0.310
-0.210
-0.250
-0.200
-0.280
-0.290
-0.270
-0.240
-0.310
-0.290
-0.240
-0.270
-0.250
-0.260
-0.270
-0.240
-0.220
-0.190
-0.180
-0.230
-0.190
-0.180
-0.150
-0.160
-0.170
-0.140
-0.150
-0.100
-0.110
-0.100
-0.090
-0.080
-0.090
-0.040
-0.140
-0.040
0.000
0.010
0.020
0.050
0.050
0.040
0.040
0.090
0.090
0.080
0.060
0.110
0.110
0.110
0.070
0.100
0.000
-0.170
-0.260
-0.360
-0.360
-0.360
-0.340
-0.360
-0.360
-0.410
-0.440
-0.410
-0.410
-0.420
-0.400
-0.390
-0.390
-0.400
-0.360
-0.370
-0.370
-0.340
-0.330
-0.230
-0.190
-0.200
-0.190
-0.200
-0.150
-0.130
-0.120
-0.090
-0.120
-0.110
-0.120
-0.090
-0.080
-0.110
-0.140
-0.130
-0.070
-0.010
0.000
0.030
0.040
0.000
0.010
0.020
0.030
-0.010
-0.020
-0.010
0.000
-0.010
-0.020
-0.030
-0.010
-0.020
-0.030
-0.050
-0.060
-0.050
-0.060
-0.080
-0.110
-0.100
-0.130
-0.120
-0.110
-0.150
-0.140
-0.130
-0.180
-0.170
-0.180
-0.210
-0.220
-0.230
-0.240
-0.280
-0.290
-0.370
-0.380
-0.390
-0.340
-0.380
-0.360
-0.340
-0.400
-0.370
22.850
9.780
6.020
4.050
2.700
1.640
0.790
0.140
-0.340
-0.760
-0.910
-1.110
-1.260
-1.350
-1.440
-1.480
-1.480
-1.480
-1.440
-1.450
-1.430
-1.450
-1.420
-1.400
-1.340
-1.300
-1.210
-1.230
-1.150
-1.110
-1.120
-1.130
-1.100
-1.100
-1.070
-1.020
-0.990
-0.940
-0.930
-0.920
-0.890
-0.860
-0.820
-0.790
-0.740
-0.750
-0.700
-0.710
-0.710
-0.720
-0.730
-0.700
-0.710
-0.690
-0.660
-0.670
-0.620
-0.580
-0.630
-0.560
-0.550
-0.490
-0.500
-0.490
-0.480
-0.460
-0.430
-0.420
-0.390
-0.410
-0.380
-0.370
-0.340
-0.320
-0.330
-0.280
-0.290
-0.260
-0.250
-0.260
-0.230
-0.220
-0.210
-0.180
-0.170
-0.160
-0.120
-0.090
-0.100
-0.090
-0.090
-0.080
-0.100
-0.070
-0.110
-0.050
-0.050
-0.040
-0.040
-0.010
-0.030
0.000
0.020
0.000
0.020
0.030
0.030
-0.040
-0.230
-0.350
-0.350
-0.440
-0.390
-0.370
-0.410
-0.410
-0.450
-0.420
-0.420
-0.410
-0.410
-0.370
-0.400
-0.400
-0.410
-0.390
-0.360
-0.350
-0.290
-0.210
-0.200
-0.190
-0.190
-0.140
-0.170
-0.130
-0.100
-0.130
-0.120
-0.110
-0.120
-0.130
-0.120
-0.090
-0.080
-0.070
0.010
-0.030
0.000
0.010
0.000
0.010
-0.010
0.020
0.010
-0.040
-0.020
-0.010
-0.020
-0.030
-0.020
-0.060
-0.040
-0.080
-0.120
-0.150
-0.120
-0.150
-0.120
-0.130
-0.170
-0.130
-0.160
-0.150
-0.150
-0.140
-0.150
-0.180
-0.190
-0.220
-0.250
-0.200
-0.230
-0.260
-0.270
-0.300
-0.300
-0.290
-0.300
-0.330
-0.290
-0.370
-0.330
-0.330
-0.360
-0.360
-0.370
-0.350
-0.360
-0.360
-0.360
-0.370
-0.370
-0.350
-0.330
-0.260
-0.070
-0.050
-0.010
0.020
0.020
0.020
0.080
0.110
0.150
0.150
0.150
-0.010
0.080
0.110
0.090
0.070
0.120
0.110
0.070
0.050
0.010
-0.040
-0.090
-0.100
-0.130
-0.160
-0.170
-0.160
-0.170
-0.200
-0.210
-0.200
-0.190
-0.180
-0.190
-0.230
-0.240
-0.210
-0.220
-0.250
-0.250
-0.280
-0.270
-0.280
-0.320
-0.250
-0.330
-0.320
-0.290
-0.310
-0.280
-0.270
-0.320
-0.280
-0.330
-0.280
-0.250
-0.270
-0.260
-0.310
-0.260
-0.210
-0.190
-0.140
-0.170
-0.140
-0.190
-0.140
-0.170
-0.140
-0.080
-0.070
-0.080
-0.070
20.870
11.530
6.940
4.760
3.360
2.230
1.380
0.660
0.130
-0.370
-0.690
-0.950
-1.150
-1.250
-1.350
-1.410
-1.450
-1.470
-1.420
-1.440
-1.460
-1.460
-1.410
-1.460
-1.600
-1.640
-1.610
-1.570
-1.550
-1.480
-1.460
-1.410
-1.430
-1.390
-1.340
-1.300
-1.190
-1.140
-1.200
-1.110
-1.060
-1.030
-0.990
-0.940
-0.900
-0.800
-0.660
-0.650
-0.590
-0.600
-0.570
-0.490
-0.520
-0.470
-0.440
-0.450
-0.420
-0.410
-0.390
-0.360
-0.370
-0.360
-0.330
-0.320
-0.260
-0.260
-0.210
-0.240
-0.210
-0.220
-0.180
-0.190
-0.150
-0.140
-0.140
-0.150
-0.100
-0.110
-0.120
-0.100
-0.130
-0.140
-0.170
-0.150
-0.160
0.510
-0.050
-0.170
-0.140
-0.220
-0.210
-0.260
-0.250
-0.280
-0.310
-0.380
-0.370
-0.380
-0.450
-0.460
-0.410
-0.440
-0.430
-0.370
-0.360
-0.370
-0.400
-0.360
-0.370
-0.350
-0.380
-0.340
-0.360
-0.370
-0.350
-0.340
-0.320
-0.300
-0.350
-0.330
-0.310
-0.140
-0.080
-0.020
0.070
0.070
0.050
0.050
0.050
0.110
0.090
0.130
0.160
0.140
0.140
0.020
0.050
0.080
0.100
0.130
0.090
0.080
0.030
0.020
-0.050
-0.160
-0.150
-0.120
-0.170
-0.160
-0.190
-0.170
-0.220
-0.210
-0.200
-0.230
-0.200
-0.210
-0.220
-0.250
-0.240
-0.250
-0.320
-0.270
-0.300
-0.370
-0.270
-0.330
-0.320
-0.330
-0.330
-0.320
-0.310
-0.340
-0.260
-0.290
-0.300
-0.310
-0.250
-0.260
-0.270
-0.260
-0.250
-0.230
-0.220
-0.230
-0.200
-0.150
-0.160
-0.140
-0.150
-0.140
-0.150
-0.160
-0.150
-0.140
-0.070
-0.080
-0.050
-0.050
-0.040
-0.050
-0.020
-0.010
0.010
0.000
0.010
0.010
0.060
0.060
0.050
0.100
0.080
0.060
0.090
0.090
0.110
0.080
0.080
0.060
-0.050
-0.240
-0.320
-0.380
-0.360
-0.360
-0.360
-0.400
-0.420
-0.420
-0.480
-0.540
-0.480
-0.440
-0.420
-0.400
-0.390
-0.410
-0.420
-0.390
-0.390
-0.360
-0.330
-0.240
-0.210
-0.220
-0.230
-0.190
-0.130
-0.140
-0.150
-0.140
-0.130
-0.160
-0.110
-0.140
-0.110
0.010
-0.090
-0.040
0.030
0.040
-0.010
0.020
0.030
0.010
0.040
0.010
0.000
0.040
-0.010
-0.040
-0.030
-0.040
-0.060
-0.110
-0.080
-0.090
-0.080
-0.090
-0.130
18.050
12.920
7.140
4.850
3.310
2.180
1.270
0.580
0.030
-0.530
-0.900
-1.180
-1.400
-1.580
-1.700
-1.790
-1.800
-1.850
-1.840
-1.890
-1.850
-1.880
-1.870
-1.850
-1.820
-1.790
-1.720
-1.710
-1.650
-1.570
-1.490
-1.460
-1.420
-1.370
-1.330
-1.280
-1.190
-1.130
-0.920
-0.790
-0.690
-0.560
-0.500
-0.500
-0.420
-0.350
-0.310
-0.260
-0.260
-0.240
-0.250
-0.210
-0.210
-0.390
-0.260
-0.210
-0.230
-0.220
-0.250
-0.310
-0.370
-0.400
-0.390
-0.390
-0.420
-0.410
-0.400
-0.370
-0.340
-0.330
-0.360
-0.330
-0.320
-0.370
-0.360
-0.400
-0.430
-0.460
-0.470
-0.430
-0.400
-0.410
-0.400
-0.390
-0.350
-0.340
-0.410
-0.360
-0.360
-0.390
-0.430
-0.480
-0.480
-0.490
-0.460
-0.470
-0.520
-0.500
-0.490
-0.440
-0.390
-0.360
-0.330
-0.290
-0.230
-0.180
-0.260
-0.120
-0.050
-0.020
0.040
0.090
0.080
0.090
0.140
0.130
0.130
0.140
0.130
0.140
0.170
0.170
0.110
0.110
0.120
0.090
0.090
0.080
0.100
0.100
0.110
0.090
0.090
0.060
0.020
-0.070
-0.260
-0.280
-0.380
-0.360
-0.360
-0.380
-0.420
-0.490
-0.470
-0.540
-0.540
-0.500
-0.480
-0.470
-0.440
-0.430
-0.450
-0.460
-0.440
-0.450
-0.420
-0.320
-0.260
-0.380
-0.270
-0.220
-0.170
-0.130
-0.100
-0.130
-0.120
-0.110
-0.120
-0.130
-0.100
-0.090
-0.080
-0.090
0.010
-0.070
-0.010
0.020
0.010
-0.010
-0.020
0.010
0.000
-0.010
0.010
0.000
0.020
0.030
-0.040
0.000
0.010
-0.020
-0.060
-0.100
-0.130
-0.070
-0.080
-0.120
-0.130
-0.100
-0.150
-0.160
-0.170
-0.140
-0.160
-0.170
-0.160
-0.190
-0.180
-0.210
-0.290
-0.270
-0.230
-0.240
-0.270
-0.260
-0.290
-0.320
-0.350
-0.330
-0.370
-0.370
-0.380
-0.350
-0.360
-0.410
-0.400
-0.370
-0.360
-0.360
-0.360
-0.360
-0.330
-0.310
-0.120
-0.020
0.030
0.050
0.030
0.050
0.050
0.110
0.130
0.140
0.140
0.140
0.140
0.130
0.110
0.100
0.100
0.130
0.110
0.080
0.080
0.020
-0.050
-0.090
-0.150
-0.090
-0.150
-0.120
-0.170
-0.190
-0.180
-0.210
-0.140
-0.190
-0.370
-0.260
-0.250
-0.190
-0.220
-0.230
-0.260
-0.270
-0.280
-0.310
-0.270
-0.310
13.780
15.160
7.490
5.010
3.460
2.250
1.330
0.570
-0.050
-0.560
-1.190
-1.390
-1.490
-1.570
-1.660
-1.650
-1.680
-1.680
-1.670
-1.660
-1.650
-1.600
-1.590
-1.440
-1.470
-1.440
-1.380
-1.330
-1.240
-1.160
-1.090
-1.020
-0.990
-0.910
-0.860
-0.780
-0.770
-0.700
-0.650
-0.620
-0.550
-0.550
-0.540
-0.500
-0.440
-0.420
-0.400
-0.350
-0.350
-0.350
-0.300
-0.380
-0.570
-0.570
-0.660
-0.680
-0.640
-0.640
-0.680
-0.700
-0.720
-0.730
-0.710
-0.690
-0.430
-0.530
-0.570
-0.560
-0.560
-0.590
-0.590
-0.580
-0.520
-0.480
-0.390
-0.310
-0.340
-0.280
-0.250
-0.230
-0.200
-0.190
-0.150
-0.160
-0.200
-0.180
-0.220
-0.180
-0.240
-0.330
-0.280
-0.270
-0.240
-0.250
-0.200
-0.170
-0.160
-0.150
-0.080
-0.070
-0.270
-0.130
-0.090
-0.080
-0.030
-0.010
-0.020
-0.020
-0.010
-0.020
-0.030
-0.030
-0.040
-0.010
-0.020
-0.010
-0.020
-0.040
-0.030
-0.040
-0.070
-0.080
-0.090
-0.120
-0.150
-0.160
-0.190
-0.220
-0.210
-0.260
-0.320
-0.300
-0.350
-0.340
-0.370
-0.380
-0.380
-0.390
-0.390
-0.380
-0.360
-0.390
-0.390
-0.350
-0.370
-0.380
-0.410
-0.430
-0.380
-0.370
-0.210
-0.100
-0.020
-0.020
0.050
0.050
0.000
0.070
0.050
0.060
0.140
0.120
0.120
0.130
0.110
0.120
0.140
0.120
0.110
0.100
0.080
-0.020
-0.050
-0.110
-0.130
-0.120
-0.130
-0.150
-0.160
-0.230
-0.200
-0.210
-0.220
-0.190
-0.200
-0.210
-0.230
-0.170
-0.230
-0.240
-0.250
-0.270
-0.280
-0.290
-0.300
-0.290
-0.240
-0.260
-0.280
-0.220
-0.280
-0.240
-0.250
-0.280
-0.290
-0.280
-0.260
-0.250
-0.220
-0.230
-0.210
-0.220
-0.210
-0.200
-0.300
-0.240
-0.200
-0.190
-0.160
-0.150
-0.160
-0.110
-0.120
-0.110
-0.120
-0.070
-0.080
-0.030
-0.050
-0.080
-0.050
-0.020
-0.010
-0.010
0.000
0.010
0.050
0.040
0.040
0.070
0.050
0.060
0.060
0.070
0.090
0.090
0.070
0.060
-0.020
-0.190
-0.280
-0.320
-0.320
-0.340
-0.360
-0.380
-0.450
-0.480
-0.480
-0.460
-0.430
-0.420
-0.420
-0.390
-0.410
-0.410
-0.380
-0.370
-0.310
-0.270
-0.170
-0.180
-0.190
-0.160
-0.110
-0.170
-0.180
-0.140
-0.090
8.340
19.230
8.300
5.530
3.900
2.580
1.630
0.900
0.260
-0.280
-0.620
-0.900
-1.160
-1.290
-1.410
-1.460
-1.490
-1.510
-1.540
-1.530
-1.520
-1.520
-1.550
-1.540
-1.490
-1.490
-1.450
-1.400
-1.330
-1.290
-1.250
-1.220
-1.150
-1.110
-1.080
-1.050
-0.970
-1.020
-0.940
-0.950
-0.920
-0.910
-0.860
-0.840
-0.880
-0.840
-0.840
-0.830
-0.800
-0.770
-0.780
-0.770
-0.750
-0.780
-0.740
-0.740
-0.710
-0.780
-0.720
-0.720
-0.730
-0.690
-0.690
-0.700
-0.680
-0.570
-0.540
-0.330
-0.230
-0.120
-0.100
-0.080
-0.100
-0.060
-0.020
0.030
0.080
0.080
0.060
0.100
0.110
0.090
0.080
0.060
0.060
0.020
0.030
-0.030
-0.100
-0.230
-0.280
-0.270
-0.330
-0.390
-0.420
-0.500
-0.440
-0.410
-0.360
-0.310
-0.300
-0.250
-0.260
-0.270
-0.240
-0.210
-0.220
-0.230
-0.200
-0.230
-0.190
-0.180
-0.170
-0.160
-0.170
-0.170
-0.200
-0.230
-0.330
-0.280
-0.260
-0.180
-0.220
-0.230
-0.120
-0.160
-0.170
-0.220
-0.210
-0.190
-0.200
-0.190
-0.180
-0.190
-0.220
-0.190
-0.170
-0.060
-0.150
-0.140
-0.150
-0.140
-0.110
-0.130
-0.100
-0.090
-0.060
-0.050
-0.040
-0.040
-0.030
0.020
-0.020
0.010
0.000
0.040
0.030
0.030
0.040
0.000
0.000
0.010
0.030
0.010
-0.060
-0.050
-0.210
-0.320
-0.360
-0.400
-0.360
-0.380
-0.420
-0.420
-0.460
-0.500
-0.500
-0.460
-0.420
-0.420
-0.530
-0.430
-0.410
-0.380
-0.380
-0.390
-0.340
-0.300
-0.220
-0.210
-0.200
-0.180
-0.170
-0.160
-0.170
-0.130
-0.140
-0.150
-0.100
-0.130
-0.120
-0.110
-0.120
-0.090
-0.080
-0.020
0.010
0.040
0.040
-0.010
0.000
-0.010
-0.020
-0.010
-0.030
0.000
0.020
-0.020
-0.010
-0.020
0.010
0.000
-0.040
-0.070
-0.060
-0.070
-0.100
-0.120
-0.110
-0.120
-0.110
-0.100
-0.110
-0.140
-0.130
-0.180
-0.200
-0.210
-0.270
-0.230
-0.210
-0.240
-0.270
-0.240
-0.250
-0.280
-0.310
-0.290
-0.300
-0.310
-0.330
-0.340
-0.350
-0.350
-0.410
-0.390
-0.370
-0.370
-0.370
-0.380
-0.380
-0.340
-0.340
-0.140
-0.060
-0.020
0.070
0.090
0.070
0.090
0.090
0.150
0.160
0.160
0.160
0.120
0.110
0.110
0.110
0.140
1.150
24.790
9.070
5.970
4.150
2.740
1.700
0.880
0.230
-0.280
-0.780
-1.060
-1.350
-1.530
-1.640
-1.720
-1.730
-1.780
-1.750
-1.760
-1.770
-1.760
-1.800
-1.760
-1.750
-1.870
-1.710
-1.610
-1.580
-1.480
-1.450
-1.380
-1.340
-1.270
-1.230
-1.180
-1.110
-1.070
-1.040
-0.990
-0.910
-0.870
-0.800
-0.790
-0.740
-0.700
-0.640
-0.650
-0.600
-0.590
-0.580
-0.570
-0.560
-0.530
-0.460
-0.430
-0.420
-0.410
-0.380
-0.340
-0.330
-0.320
-0.210
-0.260
-0.250
-0.250
-0.240
-0.230
-0.210
-0.160
-0.150
-0.130
-0.120
-0.080
-0.070
-0.070
-0.040
-0.010
-0.010
-0.010
-0.010
0.000
-0.210
-0.300
-0.360
-0.400
-0.400
-0.510
-0.530
-0.550
-0.600
-0.650
-0.670
-0.670
-0.660
-0.660
-0.630
-0.670
-0.620
-0.610
-0.550
-0.500
-0.420
-0.320
-0.240
-0.170
-0.150
-0.090
-0.080
-0.090
0.000
0.080
0.010
0.090
-0.030
0.050
0.060
0.050
0.030
0.040
0.050
0.060
0.070
0.060
0.050
0.040
0.000
-0.010
0.000
-0.010
0.000
-0.040
-0.050
-0.060
-0.070
-0.090
-0.080
-0.090
-0.120
-0.130
-0.130
-0.140
-0.130
-0.110
-0.150
-0.140
-0.150
-0.140
-0.110
-0.180
-0.280
-0.180
-0.190
-0.180
-0.210
-0.220
-0.230
-0.260
-0.250
-0.260
-0.250
-0.280
-0.300
-0.310
-0.320
-0.360
-0.360
-0.370
-0.380
-0.380
-0.390
-0.360
-0.420
-0.400
-0.370
-0.410
-0.410
-0.360
-0.340
-0.330
-0.100
-0.060
0.050
0.070
0.050
0.090
0.070
0.110
0.130
0.140
0.160
0.160
0.150
0.130
0.110
0.120
0.100
0.110
0.110
0.080
0.010
-0.020
-0.070
-0.160
-0.130
-0.140
-0.170
-0.160
-0.170
-0.190
-0.180
-0.230
-0.240
-0.230
-0.220
-0.210
-0.230
-0.220
-0.260
-0.270
-0.240
-0.330
-0.260
-0.270
-0.280
-0.280
-0.250
-0.240
-0.250
-0.290
-0.310
-0.300
-0.290
-0.300
-0.260
-0.290
-0.260
-0.250
-0.250
-0.240
-0.190
-0.220
-0.210
-0.220
-0.200
-0.170
-0.200
-0.190
-0.180
-0.150
-0.160
-0.130
-0.140
-0.110
-0.080
-0.070
-0.040
-0.070
-0.060
-0.050
-0.010
-0.020
-0.010
0.000
0.020
0.010
0.030
0.060
-0.010
0.030
0.060
0.040
0.040
0.050
0.070
0.050
0.030
0.000
-0.110
-0.210
-0.300
-0.320
24.300
9.570
6.040
4.040
2.650
1.560
0.720
0.010
-0.500
-0.910
-1.200
-1.440
-1.610
-1.770
-1.830
-1.880
-1.880
-1.850
-1.820
-1.720
-1.730
-1.710
-1.640
-1.560
-1.500
-1.490
-1.400
-1.320
-1.310
-1.220
-1.180
-1.130
-1.080
-1.000
-0.950
-0.900
-0.850
-0.800
-0.770
-0.720
-0.680
-0.650
-0.610
-0.600
-0.540
-0.550
-0.500
-0.520
-0.530
-0.560
-0.490
-0.440
-0.480
-0.440
-0.450
-0.450
-0.460
-0.450
-0.440
-0.450
-0.440
-0.400
-0.450
-0.370
-0.340
-0.350
-0.380
-0.410
-0.470
-0.390
-0.400
-0.410
-0.360
-0.370
-0.380
-0.360
-0.370
-0.380
-0.350
-0.370
-0.380
-0.390
-0.410
-0.420
-0.430
-0.430
-0.450
-0.460
-0.460
-0.530
-0.510
-0.600
-0.640
-0.630
-0.580
-0.370
-0.350
-0.270
-0.210
-0.100
-0.120
-0.060
-0.020
0.090
0.100
0.160
0.200
0.240
0.130
0.190
0.220
0.250
0.260
0.240
0.200
0.190
0.130
-0.010
-0.040
-0.070
-0.070
-0.080
-0.120
-0.130
-0.140
-0.170
-0.160
-0.150
-0.160
-0.150
-0.180
-0.150
-0.210
-0.200
-0.270
-0.280
-0.350
-0.290
-0.350
-0.340
-0.310
-0.330
-0.300
-0.310
-0.320
-0.310
-0.290
-0.300
-0.310
-0.340
-0.320
-0.230
-0.280
-0.270
-0.260
-0.240
-0.270
-0.240
-0.210
-0.180
-0.190
-0.210
-0.200
-0.210
-0.180
-0.150
-0.160
-0.220
-0.100
-0.090
-0.040
-0.050
-0.030
-0.060
-0.030
-0.040
-0.030
-0.010
0.020
0.010
0.010
0.020
0.020
0.050
0.090
0.040
0.040
0.070
0.050
0.050
0.010
0.020
-0.020
-0.240
-0.320
-0.360
-0.380
-0.360
-0.380
-0.420
-0.420
-0.470
-0.460
-0.430
-0.390
-0.400
-0.400
-0.380
-0.370
-0.370
-0.420
-0.380
-0.390
-0.340
-0.270
-0.220
-0.210
-0.190
-0.180
-0.170
-0.160
-0.120
-0.130
-0.120
-0.130
-0.130
-0.120
-0.250
-0.130
-0.100
-0.070
-0.010
0.020
0.030
0.060
0.030
0.010
0.040
0.030
0.020
0.030
-0.010
-0.020
-0.010
-0.020
-0.060
-0.020
-0.060
-0.040
-0.030
-0.050
-0.060
-0.090
-0.100
-0.120
-0.130
-0.120
-0.130
-0.120
-0.130
-0.180
-0.170
-0.170
-0.160
-0.170
-0.200
-0.230
-0.240
-0.240
-0.230
-0.260
-0.270
-0.330
-0.290
-0.340
-0.320
-0.310
-0.340
-0.320
-0.330
21.380
10.870
6.390
4.230
2.840
1.760
0.900
0.230
-0.300
-0.820
-1.130
-1.220
-1.320
-1.380
-1.470
-1.530
-1.510
-1.490
-1.470
-1.490
-1.410
-1.400
-1.350
-1.330
-1.320
-1.280
-1.250
-1.190
-1.090
-1.090
-1.020
-1.020
-1.030
-1.060
-1.080
-1.030
-1.000
-0.510
-0.900
-0.870
-0.890
-0.850
-0.820
-0.790
-0.780
-0.730
-0.740
-0.750
-0.700
-0.690
-0.690
-0.660
-0.690
-0.680
-0.690
-0.660
-0.640
-0.610
-0.600
-0.630
-0.580
-0.580
-0.570
-0.560
-0.590
-0.550
-0.690
-0.550
-0.500
-0.440
-0.410
-0.400
-0.390
-0.380
-0.310
-0.260
-0.280
-0.290
-0.210
-0.220
-0.190
-0.180
-0.150
-0.140
-0.150
-0.140
-0.130
-0.100
-0.110
-0.120
-0.140
-0.140
-0.150
-0.200
-0.210
-0.270
-0.260
-0.280
-0.250
-0.180
-0.140
-0.040
-0.040
0.000
0.110
0.130
0.150
0.160
0.140
0.020
-0.130
-0.190
-0.240
-0.280
-0.260
-0.320
-0.340
-0.380
-0.400
-0.410
-0.460
-0.410
-0.420
-0.420
-0.490
-0.410
-0.390
-0.400
-0.400
-0.350
-0.360
-0.300
-0.240
-0.210
-0.240
-0.200
-0.150
-0.130
-0.170
-0.130
-0.120
-0.130
-0.140
-0.110
-0.120
-0.130
-0.080
-0.110
0.010
0.020
0.010
0.010
0.000
0.010
0.000
0.010
0.010
0.000
-0.030
-0.020
-0.010
-0.030
-0.060
-0.020
-0.060
-0.050
-0.090
-0.100
-0.110
-0.100
-0.140
-0.120
-0.110
-0.140
-0.130
-0.150
-0.120
-0.130
-0.140
-0.150
-0.160
-0.230
-0.310
-0.250
-0.220
-0.230
-0.260
-0.270
-0.270
-0.280
-0.310
-0.320
-0.320
-0.360
-0.370
-0.340
-0.380
-0.360
-0.340
-0.420
-0.370
-0.370
-0.410
-0.430
-0.380
-0.390
-0.350
-0.330
-0.120
-0.040
0.070
0.030
0.050
0.050
0.030
0.090
0.090
0.140
0.100
0.120
0.120
0.130
0.110
0.100
0.120
0.130
0.040
0.050
-0.030
-0.040
-0.090
-0.150
-0.130
-0.140
-0.150
-0.180
-0.150
-0.240
-0.310
-0.250
-0.220
-0.230
-0.200
-0.210
-0.190
-0.230
-0.280
-0.270
-0.220
-0.270
-0.280
-0.300
-0.290
-0.330
-0.300
-0.260
-0.310
-0.300
-0.330
-0.280
-0.250
-0.250
-0.280
-0.290
-0.280
-0.260
-0.230
-0.240
-0.210
-0.220
-0.200
-0.170
-0.160
-0.150
-0.140
-0.170
-0.160
-0.140
-0.130
-0.160
-0.130
18.210
12.980
7.270
4.970
3.510
2.360
1.480
0.780
0.110
-0.350
-0.670
-0.940
-1.150
-1.240
-1.370
-1.400
-1.440
-1.450
-1.410
-1.440
-1.440
-1.400
-1.410
-1.370
-1.350
-1.480
-1.580
-1.620
-1.500
-1.500
-1.430
-1.410
-1.390
-1.330
-1.330
-1.280
-1.260
-1.170
-1.120
-1.080
-1.030
-1.000
-1.000
-0.970
-0.920
-0.850
-0.820
-0.750
-0.640
-0.610
-0.560
-0.520
-0.500
-0.490
-0.480
-0.430
-0.420
-0.410
-0.420
-0.410
-0.370
-0.340
-0.330
-0.400
-0.390
-0.330
-0.320
-0.260
-0.230
-0.240
-0.250
-0.230
-0.180
-0.170
-0.130
-0.110
-0.100
-0.070
-0.060
-0.020
-0.040
-0.030
-0.020
-0.050
-0.120
-0.060
-0.140
-0.150
-0.130
-0.220
-0.270
-0.320
-0.370
-0.450
-0.480
-0.530
-0.540
-0.530
-0.560
-0.510
-0.480
-0.420
-0.370
-0.340
-0.330
-0.350
-0.310
-0.300
-0.270
-0.270
-0.280
-0.270
-0.270
-0.260
-0.280
-0.370
-0.270
-0.250
-0.260
-0.300
-0.260
-0.290
-0.290
-0.270
-0.060
0.000
0.050
0.090
0.070
0.070
0.070
0.090
0.110
0.120
0.120
0.100
0.120
0.110
0.090
0.100
0.100
0.130
0.070
0.030
0.000
-0.060
-0.140
-0.170
-0.150
-0.160
-0.190
-0.180
-0.190
-0.180
-0.190
-0.180
-0.170
-0.200
-0.210
-0.200
-0.190
-0.210
-0.260
-0.250
-0.260
-0.290
-0.310
-0.390
-0.340
-0.310
-0.380
-0.300
-0.310
-0.320
-0.310
-0.270
-0.280
-0.270
-0.260
-0.310
-0.250
-0.240
-0.270
-0.240
-0.220
-0.230
-0.200
-0.170
-0.180
-0.170
-0.170
-0.160
-0.170
-0.180
-0.130
-0.140
-0.110
-0.120
-0.110
-0.060
-0.050
-0.050
0.000
-0.030
-0.020
0.120
0.010
0.020
0.010
0.030
0.000
0.030
0.030
0.060
0.060
0.040
0.030
-0.010
0.030
0.060
0.080
0.000
-0.110
-0.260
-0.340
-0.360
-0.360
-0.340
-0.380
-0.400
-0.450
-0.450
-0.430
-0.480
-0.460
-0.380
-0.420
-0.430
-0.410
-0.420
-0.420
-0.410
-0.390
-0.380
-0.280
-0.180
-0.210
-0.200
-0.170
-0.160
-0.160
-0.120
-0.110
-0.100
-0.110
-0.140
-0.130
-0.120
-0.090
-0.100
-0.080
0.000
0.030
0.020
-0.050
-0.020
0.010
-0.010
-0.040
-0.010
0.000
-0.020
-0.010
-0.020
0.040
0.000
0.010
-0.020
-0.050
-0.040
-0.080
13.520
15.720
7.760
5.270
3.580
2.370
1.410
0.650
0.070
-0.470
-0.860
-1.160
-1.360
-1.570
-1.680
-1.730
-1.780
-1.830
-1.840
-1.830
-1.840
-1.850
-1.850
-1.820
-1.810
-1.780
-1.730
-1.680
-1.660
-1.590
-1.500
-1.490
-1.450
-1.400
-1.330
-1.440
-1.280
-1.190
-1.110
-1.010
-0.770
-0.710
-0.540
-0.520
-0.460
-0.460
-0.390
-0.350
-0.310
-0.240
-0.200
-0.240
-0.220
-0.210
-0.230
-0.200
-0.220
-0.190
-0.210
-0.240
-0.290
-0.360
-0.410
-0.380
-0.370
-0.370
-0.360
-0.390
-0.360
-0.350
-0.360
-0.330
-0.320
-0.310
-0.280
-0.310
-0.300
-0.270
-0.260
-0.310
-0.310
-0.320
-0.360
-0.390
-0.420
-0.410
-0.390
-0.380
-0.430
-0.470
-0.470
-0.540
-0.550
-0.560
-0.560
-0.510
-0.520
-0.470
-0.410
-0.360
-0.350
-0.320
-0.330
-0.340
-0.320
-0.310
-0.300
-0.250
-0.210
-0.200
0.250
-0.080
-0.070
-0.040
0.010
0.070
0.050
0.090
0.160
0.180
0.210
0.220
0.230
0.230
0.220
0.170
0.190
0.130
0.130
0.170
0.080
0.110
0.090
0.070
-0.150
0.000
0.000
-0.020
-0.210
-0.320
-0.360
-0.400
-0.380
-0.420
-0.450
-0.470
-0.470
-0.470
-0.480
-0.480
-0.460
-0.420
-0.440
-0.410
-0.410
-0.420
-0.400
-0.390
-0.350
-0.300
-0.220
-0.200
-0.210
-0.180
-0.170
-0.160
-0.100
-0.130
-0.110
-0.120
-0.130
-0.080
-0.090
-0.090
-0.100
0.000
-0.030
-0.070
0.030
0.000
-0.010
0.030
0.020
0.010
0.000
-0.010
-0.110
-0.020
-0.010
-0.020
-0.010
-0.020
-0.010
-0.040
-0.060
-0.100
-0.080
-0.090
-0.110
-0.150
-0.130
-0.140
-0.130
-0.140
-0.140
-0.150
-0.180
-0.190
-0.180
-0.210
-0.220
-0.190
-0.220
-0.270
-0.280
-0.270
-0.270
-0.300
-0.340
-0.320
-0.300
-0.310
-0.340
-0.340
-0.350
-0.390
-0.410
-0.400
-0.400
-0.400
-0.430
-0.410
-0.390
-0.420
-0.370
-0.420
-0.160
-0.060
0.030
0.030
0.030
0.050
0.070
0.050
0.110
0.150
0.110
0.140
0.160
0.120
0.130
0.110
0.140
0.160
0.150
0.110
0.080
0.020
-0.080
-0.110
-0.100
-0.160
-0.150
-0.190
-0.180
-0.210
-0.220
-0.170
-0.200
-0.170
-0.200
-0.170
-0.230
-0.220
-0.210
-0.290
-0.280
-0.270
-0.300
-0.340
6.660
19.790
8.120
5.380
3.660
2.400
1.420
0.690
0.070
-0.460
-0.870
-1.260
-1.350
-1.510
-1.620
-1.650
-1.680
-1.690
-1.670
-1.660
-1.670
-1.640
-1.680
-1.600
-1.610
-1.540
-1.460
-1.380
-1.310
-1.260
-1.160
-1.110
-1.030
-1.000
-0.950
-0.890
-0.840
-0.750
-0.710
-0.670
-0.640
-0.580
-0.550
-0.540
-0.500
-0.470
-0.440
-0.440
-0.390
-0.370
-0.330
-0.320
-0.340
-0.340
-0.570
-0.660
-0.650
-0.690
-0.670
-0.640
-0.640
-0.700
-0.700
-0.720
-0.740
-0.750
-0.710
-0.690
-0.630
-0.570
-0.560
-0.580
-0.570
-0.530
-0.520
-0.440
-0.320
-0.240
-0.190
-0.170
-0.140
-0.120
-0.130
-0.120
-0.110
-0.120
-0.130
-0.120
-0.150
-0.180
-0.170
-0.250
-0.280
-0.290
-0.300
-0.290
-0.330
-0.320
-0.280
-0.230
0.050
-0.070
-0.120
-0.110
-0.100
-0.060
-0.030
0.010
0.040
0.020
-0.030
-0.020
0.010
-0.070
-0.100
-0.090
-0.100
-0.070
-0.090
-0.080
-0.220
-0.120
-0.090
-0.100
-0.090
-0.120
-0.110
-0.140
-0.170
-0.180
-0.210
-0.200
-0.230
-0.260
-0.270
-0.310
-0.350
-0.360
-0.320
-0.340
-0.400
-0.420
-0.410
-0.430
-0.420
-0.400
-0.410
-0.450
-0.430
-0.420
-0.440
-0.390
-0.350
-0.120
-0.070
-0.010
0.020
-0.050
0.030
0.050
0.050
0.070
0.090
0.130
0.120
0.120
0.090
0.090
0.130
0.200
0.180
0.090
0.100
0.080
-0.020
-0.090
-0.140
-0.190
-0.180
-0.150
-0.200
-0.190
-0.210
-0.220
-0.210
-0.200
-0.190
-0.220
-0.200
-0.220
-0.210
-0.240
-0.290
-0.280
-0.330
-0.290
-0.350
-0.340
-0.390
-0.340
-0.320
-0.310
-0.280
-0.290
-0.270
-0.240
-0.290
-0.340
-0.280
-0.270
-0.260
-0.230
-0.240
-0.240
-0.230
-0.200
-0.210
-0.160
-0.180
-0.190
-0.180
-0.170
-0.140
-0.110
-0.120
-0.110
-0.060
-0.070
-0.040
-0.070
-0.100
-0.030
-0.030
-0.020
0.050
0.020
0.040
0.030
0.060
0.080
0.050
0.050
0.100
0.080
0.070
0.070
0.090
0.080
0.100
0.080
0.040
-0.150
-0.230
-0.310
-0.330
-0.350
-0.350
-0.380
-0.400
-0.420
-0.470
-0.450
-0.480
-0.430
-0.410
-0.420
-0.400
-0.410
-0.410
-0.420
-0.380
-0.370
-0.360
-0.250
-0.200
-0.210
-0.220
-0.190
-0.150
-0.200
0.110
25.500
9.090
5.930
4.130
2.790
1.820
1.030
0.410
-0.290
-0.590
-0.880
-1.070
-1.230
-1.370
-1.450
-1.480
-1.510
-1.540
-1.540
-1.550
-1.520
-1.510
-1.530
-1.480
-1.470
-1.410
-1.410
-1.340
-1.280
-1.250
-1.160
-1.180
-1.150
-1.110
-1.060
-1.010
-1.000
-0.950
-0.880
-0.870
-0.860
-0.800
-0.790
-0.800
-0.790
-0.800
-0.790
-0.760
-0.760
-0.770
-0.760
-0.750
-0.710
-0.730
-0.740
-0.750
-0.750
-0.720
-0.760
-0.750
-0.730
-0.700
-0.700
-0.660
-0.540
-0.770
-0.670
-0.480
-0.270
-0.220
-0.130
-0.130
-0.150
-0.150
-0.050
0.030
0.090
0.110
0.110
0.160
0.160
0.120
0.130
0.130
0.140
0.120
0.130
0.130
0.030
-0.020
-0.150
-0.220
-0.250
-0.300
-0.390
-0.440
-0.500
-0.550
-0.500
-0.510
-0.460
-0.420
-0.370
-0.340
-0.330
-0.280
-0.270
-0.240
-0.200
-0.230
-0.200
-0.210
-0.220
-0.200
-0.210
-0.240
-0.210
-0.200
-0.160
-0.170
-0.250
-0.240
-0.280
-0.440
-0.320
-0.270
-0.250
-0.260
-0.250
-0.200
-0.200
-0.190
-0.200
-0.190
-0.220
-0.210
-0.160
-0.160
-0.170
-0.140
-0.130
-0.120
-0.110
-0.080
-0.070
-0.070
-0.060
-0.030
0.000
-0.010
0.030
-0.020
0.010
0.010
0.020
0.050
0.050
0.060
0.040
0.070
0.070
0.050
0.080
0.040
0.020
0.000
-0.240
-0.270
-0.370
-0.410
-0.440
-0.440
-0.410
-0.470
-0.470
-0.470
-0.470
-0.450
-0.460
-0.460
-0.380
-0.380
-0.420
-0.390
-0.420
-0.400
-0.370
-0.330
-0.270
-0.220
-0.190
-0.190
-0.160
-0.170
-0.110
-0.120
-0.090
-0.100
-0.110
-0.120
-0.110
-0.100
-0.090
-0.140
-0.070
-0.030
0.020
0.030
0.010
0.040
0.050
0.000
0.010
0.010
0.050
-0.010
0.030
-0.020
0.000
-0.040
-0.050
-0.020
-0.050
-0.090
-0.050
-0.070
-0.080
-0.140
-0.170
-0.130
-0.150
-0.140
-0.150
-0.140
-0.130
-0.180
-0.170
-0.160
-0.210
-0.290
-0.230
-0.240
-0.230
-0.180
-0.250
-0.280
-0.290
-0.300
-0.300
-0.310
-0.320
-0.320
-0.350
-0.340
-0.340
-0.370
-0.370
-0.330
-0.360
-0.360
-0.370
-0.370
-0.350
-0.310
-0.160
-0.050
-0.010
0.080
0.040
0.040
0.120
0.090
0.110
0.130
0.130
0.130
0.120
0.140
0.120
0.110
0.090
24.400
10.110
6.460
4.470
3.090
1.940
1.060
0.350
-0.170
-0.680
-1.010
-1.270
-1.470
-1.550
-1.650
-1.710
-1.720
-1.710
-1.710
-1.780
-1.790
-1.810
-1.800
-1.740
-1.730
-1.660
-1.580
-1.550
-1.510
-1.460
-1.390
-1.310
-1.280
-1.220
-1.150
-1.070
-1.040
-1.010
-1.000
-0.930
-0.920
-0.870
-0.840
-0.800
-0.750
-0.690
-0.660
-0.630
-0.630
-0.600
-0.590
-0.560
-0.530
-0.520
-0.490
-0.420
-0.410
-0.420
-0.390
-0.330
-0.320
-0.340
-0.260
-0.270
-0.250
-0.220
-0.230
-0.180
-0.180
-0.150
-0.150
-0.180
-0.140
-0.130
-0.070
-0.030
-0.010
0.030
0.080
0.080
0.080
0.080
-0.140
-0.370
-0.310
-0.290
-0.330
-0.310
-0.360
-0.450
-0.510
-0.550
-0.610
-0.650
-0.690
-0.710
-0.700
-0.680
-0.640
-0.600
-0.590
-0.540
-0.500
-0.440
-0.370
-0.330
-0.250
-0.280
-0.230
-0.160
-0.130
-0.120
-0.090
-0.060
-0.030
0.000
-0.030
-0.040
0.010
-0.020
0.050
0.040
0.030
0.060
0.070
0.050
0.090
0.080
0.070
0.030
-0.010
0.000
-0.010
-0.020
-0.080
-0.050
-0.030
-0.020
-0.040
-0.050
-0.080
-0.090
-0.110
-0.120
-0.130
-0.140
-0.370
-0.200
-0.180
-0.170
-0.180
-0.190
-0.180
-0.210
-0.220
-0.170
-0.240
-0.230
-0.280
-0.320
-0.330
-0.280
-0.310
-0.350
-0.330
-0.310
-0.370
-0.380
-0.350
-0.360
-0.360
-0.350
-0.370
-0.360
-0.380
-0.360
-0.390
-0.350
-0.330
-0.330
-0.290
-0.090
-0.010
0.040
0.060
0.040
0.050
0.050
0.090
0.130
0.130
0.160
0.120
0.080
0.090
0.090
0.080
0.080
0.090
0.070
0.030
0.020
-0.060
-0.110
-0.130
-0.120
-0.110
-0.170
-0.410
-0.230
-0.200
-0.210
-0.160
-0.210
-0.220
-0.210
-0.200
-0.170
-0.200
-0.230
-0.260
-0.290
-0.260
-0.250
-0.250
-0.260
-0.320
-0.310
-0.290
-0.280
-0.290
-0.280
-0.280
-0.310
-0.300
-0.290
-0.250
-0.240
-0.230
-0.240
-0.250
-0.210
-0.200
-0.190
-0.220
-0.190
-0.180
-0.180
-0.170
-0.160
-0.150
-0.160
-0.110
-0.120
-0.070
-0.120
-0.070
-0.040
-0.040
-0.030
0.020
0.030
0.000
0.000
0.070
0.060
0.040
0.010
0.030
0.080
0.060
0.090
0.090
0.090
0.080
0.060
0.080
0.000
-0.170
-0.300
21.410
10.930
6.470
4.330
2.900
1.780
0.880
0.120
-0.420
-0.860
-1.150
-1.400
-1.600
-1.710
-1.800
-1.840
-1.870
-1.870
-1.860
-1.810
-1.750
-1.690
-1.660
-1.630
-1.580
-1.470
-1.440
-1.370
-1.290
-1.240
-1.180
-1.190
-1.120
-1.050
-0.990
-0.920
-0.870
-0.780
-0.770
-0.700
-0.660
-0.670
-0.620
-0.580
-0.590
-0.530
-0.500
-0.500
-0.490
-0.480
-0.490
-0.470
-0.540
-0.490
-0.430
-0.430
-0.460
-0.410
-0.400
-0.410
-0.450
-0.480
-0.450
-0.460
-0.450
-0.460
-0.450
-0.450
-0.440
-0.470
-0.410
-0.400
-0.410
-0.380
-0.380
-0.370
-0.340
-0.300
-0.270
-0.260
-0.260
-0.250
-0.260
-0.300
-0.290
-0.320
-0.340
-0.370
-0.400
-0.420
-0.470
-0.510
-0.510
-0.580
-0.580
-0.560
-0.480
-0.290
-0.210
-0.140
-0.180
-0.160
-0.140
-0.080
0.000
0.090
0.110
0.140
0.160
0.160
0.170
0.150
0.160
0.180
0.170
0.170
0.160
0.090
0.020
-0.070
-0.060
-0.090
-0.090
-0.110
-0.140
-0.150
-0.160
-0.150
-0.160
-0.150
-0.180
-0.190
-0.200
-0.190
-0.180
-0.260
-0.300
-0.310
-0.300
-0.290
-0.280
-0.360
-0.360
-0.370
-0.340
-0.330
-0.310
-0.320
-0.330
-0.280
-0.320
-0.290
-0.280
-0.270
-0.270
-0.240
-0.270
-0.200
-0.250
-0.210
-0.220
-0.210
-0.200
-0.190
-0.220
-0.210
-0.180
-0.170
-0.140
-0.170
-0.140
-0.130
-0.210
-0.110
-0.040
-0.030
-0.020
-0.020
-0.010
0.020
0.030
0.010
0.040
0.040
0.050
0.070
0.080
0.040
0.070
0.110
0.070
0.080
0.060
0.040
-0.090
-0.210
-0.300
-0.360
-0.360
-0.360
-0.400
-0.420
-0.450
-0.490
-0.470
-0.480
-0.430
-0.410
-0.400
-0.400
-0.410
-0.390
-0.420
-0.400
-0.350
-0.340
-0.150
-0.180
-0.190
-0.180
-0.140
-0.150
-0.130
-0.100
-0.110
-0.120
-0.130
-0.120
-0.070
-0.100
-0.130
-0.120
-0.090
-0.010
0.060
0.040
0.030
0.040
0.050
0.040
0.040
0.030
0.020
0.040
0.050
0.030
0.000
0.030
-0.020
-0.020
-0.050
-0.060
-0.070
-0.070
-0.080
-0.090
-0.100
-0.090
-0.130
-0.120
-0.130
-0.140
-0.130
-0.140
-0.150
-0.140
-0.190
-0.200
-0.210
-0.220
-0.230
-0.260
-0.270
-0.300
-0.290
-0.340
-0.370
-0.360
-0.330
-0.390
17.640
12.800
6.900
4.600
3.080
1.920
0.940
0.290
-0.260
-0.750
-1.090
-1.340
-1.530
-1.470
-1.450
-1.470
-1.490
-1.510
-1.530
-1.490
-1.490
-1.410
-1.410
-1.330
-1.290
-1.250
-1.220
-1.200
-1.100
-1.060
-1.030
-0.970
-0.960
-0.950
-0.990
-1.020
-0.970
-0.950
-0.960
-0.970
-0.900
-0.860
-0.830
-0.780
-0.790
-0.760
-0.750
-0.720
-0.730
-0.700
-0.670
-0.680
-0.690
-0.680
-0.700
-0.670
-0.640
-0.650
-0.620
-0.600
-0.590
-0.600
-0.570
-0.580
-0.540
-0.570
-0.610
-0.600
-0.530
-0.460
-0.450
-0.440
-0.360
-0.370
-0.340
-0.280
-0.210
-0.170
-0.140
-0.150
-0.120
-0.090
-0.060
-0.070
-0.060
-0.050
-0.060
-0.050
-0.060
0.200
-0.100
-0.180
-0.260
-0.270
-0.240
-0.230
-0.230
-0.180
-0.150
-0.130
-0.080
-0.050
-0.070
-0.070
-0.060
-0.010
0.030
0.060
0.060
0.060
0.040
-0.130
-0.240
-0.320
-0.300
-0.340
-0.340
-0.360
-0.380
-0.450
-0.420
-0.460
-0.460
-0.410
-0.420
-0.380
-0.410
-0.410
-0.400
-0.360
-0.390
-0.350
-0.300
-0.220
-0.180
-0.170
-0.220
-0.190
-0.180
-0.170
-0.130
-0.110
-0.120
-0.110
-0.120
-0.140
-0.130
-0.060
-0.070
-0.080
-0.020
-0.010
0.000
0.010
-0.030
0.000
-0.030
-0.020
-0.020
-0.030
-0.040
-0.030
-0.020
-0.080
-0.020
-0.080
-0.040
-0.060
-0.100
-0.110
-0.120
-0.160
-0.120
-0.130
-0.140
-0.130
-0.160
-0.120
-0.130
-0.200
-0.300
-0.200
-0.190
-0.220
-0.230
-0.220
-0.210
-0.240
-0.250
-0.250
-0.280
-0.340
-0.320
-0.330
-0.330
-0.340
-0.370
-0.350
-0.390
-0.360
-0.400
-0.370
-0.350
-0.360
-0.360
-0.360
-0.370
-0.370
-0.350
-0.230
-0.080
0.000
0.030
0.050
0.000
0.070
0.090
0.110
0.110
0.140
0.160
0.140
0.150
0.130
0.110
0.120
0.100
0.110
0.100
0.080
0.020
-0.050
-0.090
-0.130
-0.120
-0.150
-0.310
-0.220
-0.210
-0.200
-0.150
-0.180
-0.150
-0.180
-0.170
-0.200
-0.160
-0.200
-0.250
-0.220
-0.250
-0.260
-0.270
-0.230
-0.310
-0.300
-0.350
-0.310
-0.340
-0.330
-0.300
-0.250
-0.270
-0.300
-0.270
-0.300
-0.260
-0.230
-0.240
-0.250
-0.210
-0.220
-0.210
-0.180
-0.190
-0.140
-0.150
-0.170
-0.140
-0.150
-0.160
12.940
16.140
7.860
5.310
3.720
2.540
1.580
0.770
0.250
-0.240
-0.600
-0.880
-1.080
-1.230
-1.330
-1.380
-1.420
-1.430
-1.430
-1.390
-1.420
-1.400
-1.400
-1.330
-1.330
-1.330
-1.290
-1.430
-1.480
-1.480
-1.460
-1.370
-1.370
-1.350
-1.330
-1.330
-1.270
-1.260
-1.190
-1.130
-1.140
-1.030
-1.000
-0.960
-0.950
-0.910
-0.870
-0.820
-0.740
-0.660
-0.590
-0.580
-0.560
-0.500
-0.510
-0.480
-0.450
-0.460
-0.410
-0.400
-0.380
-0.390
-0.400
-0.460
-0.400
-0.330
-0.310
-0.270
-0.280
-0.250
-0.240
-0.240
-0.210
-0.200
-0.140
-0.110
-0.090
-0.040
-0.050
-0.010
-0.010
0.000
0.030
0.020
0.000
-0.010
-0.020
-0.030
-0.060
-0.140
-0.180
-0.210
-0.300
-0.290
-0.320
-0.440
-0.470
-0.480
-0.500
-0.470
-0.420
-0.390
-0.440
-0.410
-0.420
-0.410
-0.380
-0.390
-0.350
-0.330
-0.300
-0.300
-0.310
-0.330
-0.430
-0.360
-0.350
-0.330
-0.340
-0.340
-0.320
-0.350
-0.310
-0.310
-0.160
0.000
0.090
0.100
0.080
0.070
0.090
0.130
0.150
0.150
0.190
0.180
0.160
0.140
0.110
0.110
0.080
0.080
0.090
0.070
0.050
-0.030
-0.100
-0.160
-0.170
-0.150
-0.160
-0.190
-0.180
-0.190
-0.220
-0.210
-0.180
-0.230
-0.220
-0.190
-0.200
-0.190
-0.230
-0.260
-0.250
-0.300
-0.370
-0.310
-0.300
-0.340
-0.330
-0.330
-0.340
-0.330
-0.340
-0.300
-0.270
-0.300
-0.290
-0.290
-0.280
-0.230
-0.260
-0.260
-0.250
-0.220
-0.250
-0.220
-0.180
-0.230
-0.200
-0.190
-0.180
-0.150
-0.120
-0.110
-0.120
-0.090
-0.080
-0.110
-0.060
-0.050
-0.020
-0.030
0.000
0.000
-0.010
-0.020
0.010
0.010
0.040
0.040
0.070
0.050
0.100
0.060
-0.080
0.050
0.070
0.060
0.040
0.020
-0.070
-0.260
-0.270
-0.370
-0.370
-0.370
-0.400
-0.420
-0.490
-0.450
-0.470
-0.450
-0.460
-0.460
-0.420
-0.400
-0.380
-0.370
-0.390
-0.400
-0.410
-0.350
-0.300
-0.220
-0.180
-0.210
-0.160
-0.120
-0.160
-0.120
-0.120
-0.070
-0.120
-0.110
-0.120
-0.130
-0.040
-0.100
-0.090
-0.010
-0.070
-0.010
0.020
0.050
0.030
0.020
0.030
0.040
0.020
0.010
0.030
0.020
-0.040
-0.010
-0.020
-0.030
-0.020
-0.040
6.320
20.600
8.410
5.590
3.850
2.580
1.600
0.810
0.160
-0.310
-0.760
-0.920
-1.230
-1.470
-1.600
-1.700
-1.770
-1.800
-1.810
-1.820
-1.830
-1.860
-1.820
-1.810
-1.800
-1.740
-1.720
-1.690
-1.640
-1.600
-1.540
-1.480
-1.450
-1.430
-1.400
-1.310
-1.270
-1.220
-1.170
-1.110
-0.940
-0.750
-0.620
-0.530
-0.510
-0.470
-0.430
-0.390
-0.350
-0.310
-0.270
-0.230
-0.220
-0.240
-0.240
-0.250
-0.210
-0.220
-0.200
-0.190
-0.170
-0.240
-0.270
-0.330
-0.390
-0.360
-0.390
-0.390
-0.400
-0.410
-0.380
-0.410
-0.440
-0.390
-0.360
-0.310
-0.260
-0.270
-0.220
-0.230
-0.250
-0.280
-0.230
-0.240
-0.210
-0.240
-0.260
-0.300
-0.310
-0.380
-0.420
-0.430
-0.450
-0.480
-0.540
-0.530
-0.520
-0.490
-0.470
-0.400
-0.390
-0.380
-0.370
-0.350
-0.340
-0.310
-0.230
-0.200
-0.150
-0.110
-0.120
-0.070
0.000
-0.050
-0.040
-0.050
-0.020
-0.030
-0.010
-0.020
0.010
-0.020
-0.010
-0.040
-0.020
-0.010
0.020
0.040
0.010
0.050
0.060
-0.020
0.050
0.070
0.090
0.060
0.060
0.060
0.020
-0.180
-0.270
-0.330
-0.350
-0.330
-0.370
-0.390
-0.450
-0.490
-0.490
-0.490
-0.490
-0.460
-0.430
-0.420
-0.420
-0.440
-0.430
-0.390
-0.400
-0.390
-0.350
-0.230
-0.220
-0.220
-0.210
-0.160
-0.170
-0.130
-0.120
-0.090
-0.060
-0.130
-0.140
-0.130
-0.100
-0.030
-0.040
0.000
0.050
0.020
0.070
-0.030
0.020
0.010
0.060
0.030
0.010
0.000
-0.010
-0.020
0.010
0.000
0.010
0.020
0.000
-0.030
-0.020
-0.030
-0.090
-0.060
-0.090
-0.100
-0.090
-0.130
-0.120
-0.130
-0.120
-0.130
-0.140
-0.150
-0.200
-0.210
-0.180
-0.210
-0.240
-0.270
-0.240
-0.250
-0.300
-0.340
-0.370
-0.350
-0.330
-0.320
-0.340
-0.350
-0.360
-0.390
-0.440
-0.460
-0.410
-0.380
-0.410
-0.390
-0.370
-0.330
-0.330
-0.220
-0.030
-0.010
0.040
0.040
0.060
0.060
0.080
0.130
0.130
0.150
0.130
0.140
0.100
0.080
0.090
0.050
0.080
0.100
0.070
0.040
0.010
-0.060
-0.120
-0.140
-0.080
-0.160
-0.170
-0.190
-0.200
-0.210
-0.220
-0.210
-0.200
-0.210
-0.220
-0.260
-0.250
-0.270
-0.260
-0.270
-0.280
-0.270
-0.300
25.600
8.900
5.780
3.930
2.620
1.610
0.820
0.220
-0.380
-0.780
-1.110
-1.390
-1.510
-1.580
-1.670
-1.700
-1.710
-1.710
-1.700
-1.690
-1.680
-1.670
-1.610
-1.580
-1.510
-1.480
-1.400
-1.330
-1.300
-1.230
-1.170
-1.100
-1.030
-1.000
-0.920
-0.850
-0.790
-0.760
-0.710
-0.700
-0.630
-0.580
-0.550
-0.530
-0.500
-0.450
-0.420
-0.380
-0.350
-0.330
-0.300
-0.280
-0.320
-0.400
-0.460
-0.560
-0.580
-0.690
-0.650
-0.630
-0.630
-0.580
-0.690
-0.700
-0.740
-0.740
-0.700
-0.670
-0.620
-0.610
-0.570
-0.570
-0.580
-0.550
-0.490
-0.410
-0.330
-0.190
-0.160
-0.150
-0.060
-0.090
-0.060
-0.070
-0.040
-0.030
-0.080
-0.090
-0.160
-0.170
-0.230
-0.240
-0.250
-0.260
-0.270
-0.280
-0.320
-0.280
-0.290
-0.220
-0.170
-0.150
-0.070
-0.060
-0.030
-0.070
-0.270
-0.070
-0.040
-0.060
-0.020
-0.050
-0.040
-0.040
-0.070
-0.080
-0.070
-0.110
-0.120
-0.110
-0.140
-0.090
-0.120
-0.130
-0.150
-0.160
-0.190
-0.220
-0.170
-0.200
-0.230
-0.240
-0.200
-0.230
-0.280
-0.290
-0.300
-0.310
-0.330
-0.340
-0.350
-0.380
-0.360
-0.360
-0.400
-0.400
-0.340
-0.380
-0.360
-0.420
-0.390
-0.390
-0.370
-0.240
-0.090
-0.030
-0.010
0.040
0.020
0.040
0.060
-0.040
0.090
0.090
0.110
0.120
0.080
0.080
0.090
0.090
0.080
0.080
0.090
0.040
0.010
-0.080
-0.110
-0.160
-0.130
-0.160
-0.190
-0.180
-0.180
-0.210
-0.220
-0.210
-0.220
-0.260
-0.250
-0.230
-0.240
-0.230
-0.280
-0.290
-0.320
-0.290
-0.310
-0.280
-0.320
-0.330
-0.320
-0.320
-0.310
-0.320
-0.330
-0.290
-0.300
-0.310
-0.300
-0.280
-0.270
-0.240
-0.250
-0.310
-0.240
-0.230
-0.200
-0.190
-0.170
-0.180
-0.170
-0.160
-0.130
-0.140
-0.150
-0.100
-0.090
-0.100
-0.090
-0.040
-0.070
-0.020
0.010
0.000
-0.020
0.030
0.040
0.030
0.030
0.060
0.050
0.070
0.080
0.100
0.070
0.110
0.090
0.120
0.100
0.060
0.060
-0.080
-0.250
-0.310
-0.350
-0.370
-0.350
-0.390
-0.410
-0.440
-0.470
-0.490
-0.490
-0.470
-0.430
-0.410
-0.380
-0.400
-0.410
-0.370
-0.360
-0.360
-0.370
-0.400
-0.230
-0.180
-0.170
-0.160
-0.140
-0.150
-0.110
23.260
10.390
6.510
4.500
3.080
2.010
1.180
0.520
-0.080
-0.470
-0.780
-1.020
-1.220
-1.320
-1.450
-1.500
-1.500
-1.530
-1.520
-1.530
-1.530
-1.560
-1.530
-1.520
-1.480
-1.440
-1.410
-1.340
-1.300
-1.280
-1.230
-1.200
-1.160
-1.120
-1.070
-1.020
-0.990
-0.930
-0.930
-0.860
-0.850
-0.810
-0.820
-0.810
-0.780
-0.770
-0.760
-0.750
-0.760
-0.810
-0.810
-0.740
-0.700
-0.710
-0.710
-0.720
-0.690
-0.690
-0.700
-0.700
-0.690
-0.710
-0.700
-0.720
-0.730
-0.710
-0.670
-0.630
-0.590
-0.380
-0.260
-0.150
-0.130
-0.110
-0.090
-0.050
0.040
0.090
0.150
0.190
0.190
0.230
0.200
0.180
0.150
0.150
0.180
0.120
0.070
-0.030
-0.130
-0.250
-0.320
-0.300
-0.340
-0.350
-0.340
-0.350
-0.360
-0.410
-0.360
-0.350
-0.300
-0.270
-0.280
-0.250
-0.260
-0.250
-0.360
-0.290
-0.260
-0.240
-0.210
-0.240
-0.230
-0.220
-0.240
-0.210
-0.240
-0.210
-0.320
-0.290
-0.260
-0.330
-0.290
-0.280
-0.290
-0.280
-0.240
-0.210
-0.220
-0.210
-0.210
-0.220
-0.210
-0.220
-0.210
-0.160
-0.090
-0.140
-0.130
-0.090
-0.100
-0.090
-0.090
-0.100
-0.050
-0.040
-0.050
-0.060
-0.030
-0.030
0.000
-0.030
0.010
0.040
0.070
0.030
0.040
0.040
0.070
0.070
0.070
0.080
0.080
0.060
0.040
-0.230
-0.290
-0.330
-0.350
-0.370
-0.350
-0.390
-0.390
-0.450
-0.450
-0.490
-0.470
-0.460
-0.410
-0.430
-0.400
-0.400
-0.390
-0.410
-0.400
-0.360
-0.350
-0.320
-0.210
-0.160
-0.170
-0.180
-0.150
-0.150
-0.110
-0.120
-0.070
-0.080
-0.110
-0.060
-0.090
-0.020
-0.090
-0.090
-0.060
0.020
0.030
0.020
0.030
-0.010
-0.020
-0.010
-0.020
0.010
-0.010
-0.040
-0.010
-0.020
-0.040
-0.050
-0.100
-0.090
-0.060
-0.100
-0.080
-0.070
-0.090
-0.080
-0.090
-0.170
-0.150
-0.170
-0.140
-0.170
-0.160
-0.150
-0.200
-0.210
-0.220
-0.230
-0.240
-0.270
-0.260
-0.290
-0.300
-0.300
-0.360
-0.320
-0.330
-0.330
-0.320
-0.330
-0.330
-0.360
-0.360
-0.400
-0.330
-0.360
-0.380
-0.390
-0.390
-0.390
-0.370
-0.330
-0.190
-0.050
0.040
0.060
0.060
0.040
0.040
0.070
0.090
0.150
0.150
0.150
0.120
0.120
0.150
20.480
11.990
7.080
4.700
3.370
2.240
1.350
0.550
-0.070
-0.530
-0.920
-1.190
-1.390
-1.510
-1.620
-1.700
-1.730
-1.760
-1.730
-1.720
-1.750
-1.720
-1.730
-1.700
-1.690
-1.630
-1.620
-1.570
-1.490
-1.460
-1.420
-1.330
-1.300
-1.220
-1.180
-1.130
-1.100
-1.050
-1.010
-1.000
-0.920
-0.890
-0.850
-0.800
-0.770
-0.710
-0.730
-0.640
-0.590
-0.580
-0.570
-0.540
-0.530
-0.500
-0.460
-0.450
-0.440
-0.410
-0.420
-0.410
-0.360
-0.370
-0.450
-0.310
-0.280
-0.290
-0.220
-0.240
-0.190
-0.200
-0.180
-0.170
-0.120
-0.080
-0.020
0.040
0.110
0.110
0.150
0.190
0.160
0.190
0.120
-0.050
-0.200
-0.270
-0.290
-0.370
-0.370
-0.480
-0.510
-0.610
-0.680
-0.680
-0.720
-0.710
-0.690
-0.630
-0.590
-0.530
-0.450
-0.430
-0.420
-0.450
-0.430
-0.360
-0.310
-0.270
-0.250
-0.200
-0.150
-0.200
-0.120
-0.130
-0.100
-0.070
-0.060
-0.050
-0.040
0.000
-0.010
-0.020
-0.240
-0.040
0.010
-0.030
0.000
-0.030
0.000
0.030
0.010
0.000
0.010
-0.020
0.030
-0.030
-0.010
-0.050
-0.020
-0.050
-0.060
-0.070
-0.090
-0.080
-0.090
-0.060
-0.110
-0.130
-0.140
-0.150
-0.120
-0.130
-0.140
-0.170
-0.180
-0.210
-0.240
-0.210
-0.240
-0.270
-0.260
-0.290
-0.330
-0.310
-0.310
-0.370
-0.380
-0.340
-0.390
-0.400
-0.420
-0.450
-0.410
-0.460
-0.440
-0.430
-0.410
-0.410
-0.420
-0.390
-0.390
-0.350
-0.190
-0.190
0.020
-0.010
0.020
0.020
1.120
0.340
0.220
0.240
0.190
0.180
0.180
0.140
0.150
0.110
0.140
0.120
0.110
0.140
0.030
0.020
-0.070
-0.090
-0.130
-0.140
-0.130
-0.160
-0.160
-0.190
-0.180
-0.210
-0.200
-0.190
-0.200
-0.210
-0.200
-0.230
-0.260
-0.270
-0.260
-0.270
-0.280
-0.280
-0.290
-0.330
-0.340
-0.350
-0.290
-0.340
-0.310
-0.280
-0.280
-0.290
-0.320
-0.290
-0.270
-0.260
-0.250
-0.350
-0.240
-0.230
-0.180
-0.150
-0.160
-0.150
-0.170
-0.160
-0.130
-0.140
-0.150
-0.100
-0.110
-0.080
-0.050
-0.040
-0.010
-0.020
0.000
-0.010
0.000
0.030
0.020
0.020
0.010
0.020
0.020
0.030
0.050
0.080
0.060
0.070
0.070
0.090
0.100
0.080
0.080
0.040
-0.110
16.820
13.500
7.120
4.740
3.250
2.020
1.110
0.350
-0.320
-0.780
-1.150
-1.380
-1.570
-1.710
-1.810
-1.860
-1.860
-1.920
-1.900
-1.860
-1.810
-1.750
-1.630
-1.580
-1.690
-1.500
-1.410
-1.400
-1.300
-1.250
-1.200
-1.120
-1.090
-1.080
-1.030
-0.950
-0.940
-0.800
-0.790
-0.770
-0.720
-0.680
-0.650
-0.620
-0.620
-0.610
-0.530
-0.520
-0.540
-0.510
-0.500
-0.470
-0.440
-0.460
-0.420
-0.410
-0.440
-0.440
-0.470
-0.440
-0.450
-0.430
-0.440
-0.490
-0.460
-0.470
-0.440
-0.360
-0.350
-0.390
-0.400
-0.390
-0.420
-0.390
-0.380
-0.320
-0.310
-0.320
-0.260
-0.250
-0.240
-0.200
-0.210
-0.220
-0.370
-0.290
-0.300
-0.280
-0.350
-0.420
-0.460
-0.490
-0.570
-0.620
-0.610
-0.650
-0.650
-0.630
-0.420
-0.320
-0.220
-0.110
-0.100
-0.080
-0.040
0.000
0.070
0.110
0.160
0.180
0.200
0.190
0.190
0.200
0.200
0.170
0.170
0.160
0.120
0.020
-0.070
-0.100
-0.150
-0.140
-0.190
-0.180
-0.170
-0.200
-0.210
-0.200
-0.190
-0.220
-0.240
-0.200
-0.260
-0.210
-0.240
-0.270
-0.260
-0.260
-0.250
-0.300
-0.290
-0.450
-0.370
-0.360
-0.330
-0.300
-0.280
-0.290
-0.300
-0.310
-0.290
-0.280
-0.270
-0.240
-0.280
-0.190
-0.200
-0.230
-0.180
-0.220
-0.170
-0.180
-0.190
-0.200
-0.170
-0.140
-0.130
-0.120
-0.090
-0.100
-0.090
-0.080
-0.030
-0.040
-0.030
-0.020
-0.020
-0.010
-0.020
0.000
0.010
0.040
0.020
0.050
0.030
0.020
0.080
0.050
0.050
0.030
0.040
0.040
0.000
-0.130
-0.260
-0.340
-0.370
-0.370
-0.380
-0.530
-0.470
-0.470
-0.470
-0.490
-0.480
-0.460
-0.410
-0.400
-0.420
-0.400
-0.410
-0.390
-0.380
-0.390
-0.310
-0.270
-0.180
-0.180
-0.170
-0.160
-0.150
-0.160
-0.140
-0.120
-0.110
-0.120
-0.110
-0.100
-0.090
-0.110
-0.080
-0.070
0.010
0.060
0.030
0.040
0.030
0.030
0.020
0.050
0.020
0.000
0.010
-0.040
-0.030
0.010
-0.010
0.020
-0.030
0.000
-0.040
-0.070
-0.060
-0.050
-0.110
-0.170
-0.160
-0.100
-0.070
-0.120
-0.140
-0.130
-0.140
-0.130
-0.180
-0.170
-0.200
-0.210
-0.240
-0.250
-0.260
-0.270
-0.270
-0.330
-0.310
-0.300
-0.310
-0.330
10.770
16.990
7.660
5.090
3.420
2.170
1.270
0.500
-0.090
-0.620
-1.030
-1.300
-1.510
-1.640
-1.530
-1.550
-1.500
-1.500
-1.520
-1.490
-1.470
-1.450
-1.380
-1.380
-1.320
-1.270
-1.230
-1.180
-1.170
-1.090
-1.060
-1.000
-0.940
-0.920
-0.910
-0.920
-0.970
-0.830
-0.860
-1.000
-0.910
-0.840
-0.850
-0.820
-0.770
-0.740
-0.730
-0.740
-0.710
-0.740
-0.690
-0.660
-0.690
-0.670
-0.660
-0.670
-0.680
-0.670
-0.660
-0.600
-0.610
-0.600
-0.630
-0.550
-0.600
-0.550
-0.560
-0.540
-0.530
-0.540
-0.490
-0.470
-0.460
-0.390
-0.360
-0.300
-0.220
-0.170
-0.100
-0.110
-0.120
-0.070
-0.040
-0.080
-0.030
-0.100
-0.090
-0.080
-0.090
-0.120
-0.170
-0.200
-0.230
-0.260
-0.230
-0.240
-0.310
-0.340
-0.220
-0.180
-0.150
-0.080
-0.050
-0.040
0.000
0.000
0.030
0.030
0.050
0.040
0.040
0.020
-0.110
-0.170
-0.250
-0.250
-0.270
-0.260
-0.320
-0.360
-0.400
-0.420
-0.380
-0.430
-0.460
-0.410
-0.420
-0.400
-0.430
-0.450
-0.420
-0.420
-0.390
-0.360
-0.250
-0.220
-0.210
-0.210
-0.200
-0.170
-0.180
-0.140
-0.130
-0.120
-0.110
-0.160
-0.130
-0.160
-0.110
-0.120
-0.110
-0.030
0.000
0.020
0.010
0.020
-0.180
0.000
0.000
-0.030
0.020
0.010
-0.040
-0.020
-0.030
-0.010
-0.020
-0.070
-0.030
-0.060
-0.100
-0.090
-0.080
-0.110
-0.100
-0.130
-0.150
-0.140
-0.150
-0.140
-0.130
-0.140
-0.150
-0.180
-0.170
-0.200
-0.210
-0.220
-0.250
-0.280
-0.290
-0.300
-0.290
-0.290
-0.320
-0.290
-0.320
-0.320
-0.350
-0.350
-0.360
-0.340
-0.400
-0.350
-0.380
-0.380
-0.380
-0.390
-0.330
-0.370
-0.330
-0.100
-0.090
-0.030
-0.050
-0.030
-0.020
0.050
0.090
0.110
0.130
0.150
0.180
0.160
0.150
0.150
0.110
0.140
0.140
0.110
0.100
0.030
-0.020
-0.140
-0.140
-0.100
-0.120
-0.150
-0.160
-0.130
-0.170
-0.200
-0.190
-0.200
-0.170
-0.200
-0.180
-0.190
-0.230
-0.200
-0.270
-0.300
-0.290
-0.280
-0.260
-0.250
-0.240
-0.250
-0.300
-0.330
-0.300
-0.270
-0.270
-0.260
-0.290
-0.280
-0.240
-0.230
-0.370
-0.270
-0.240
-0.180
-0.190
-0.200
-0.170
-0.160
-0.200
-0.190
-0.200
-0.150
-0.140
2.690
23.260
8.750
5.790
4.030
2.740
1.800
0.970
0.370
-0.200
-0.550
-0.850
-1.050
-1.200
-1.320
-1.370
-1.430
-1.440
-1.420
-1.410
-1.410
-1.420
-1.400
-1.380
-1.330
-1.310
-0.950
-1.160
-1.180
-1.150
-1.300
-1.320
-1.300
-1.280
-1.290
-1.290
-1.270
-1.250
-1.220
-1.170
-1.150
-1.110
-1.030
-0.970
-0.960
-1.020
-0.950
-0.890
-0.850
-0.780
-0.670
-0.600
-0.590
-0.560
-0.480
-0.480
-0.490
-0.460
-0.430
-0.420
-0.410
-0.400
-0.410
-0.390
-0.360
-0.350
-0.340
-0.320
-0.240
-0.270
-0.240
-0.250
-0.240
-0.240
-0.210
-0.070
-0.040
-0.020
0.040
0.030
0.080
0.040
0.090
0.060
0.070
0.030
0.020
-0.050
-0.100
-0.110
-0.180
-0.250
-0.300
-0.400
-0.390
-0.420
-0.460
-0.510
-0.520
-0.630
-0.540
-0.400
-0.390
-0.400
-0.410
-0.370
-0.340
-0.350
-0.310
-0.300
-0.310
-0.270
-0.280
-0.270
-0.270
-0.280
-0.300
-0.330
-0.330
-0.360
-0.380
-0.450
-0.440
-0.440
-0.390
-0.330
-0.100
-0.030
0.100
0.080
0.040
0.060
0.080
0.130
0.150
0.190
0.220
0.190
0.160
0.230
0.150
0.110
0.070
0.100
0.090
0.070
0.010
-0.070
-0.120
-0.160
-0.130
-0.170
-0.260
-0.210
-0.220
-0.190
-0.180
-0.210
-0.200
-0.230
-0.200
-0.260
-0.230
-0.260
-0.250
-0.300
-0.310
-0.290
-0.350
-0.290
-0.300
-0.360
-0.320
-0.370
-0.360
-0.370
-0.320
-0.300
-0.310
-0.280
-0.330
-0.290
-0.260
-0.230
-0.240
-0.220
-0.230
-0.220
-0.230
-0.190
-0.200
-0.210
-0.220
-0.170
-0.160
-0.190
-0.160
-0.150
-0.160
-0.130
-0.120
-0.110
-0.100
-0.050
-0.100
-0.070
-0.020
-0.010
-0.010
-0.040
-0.010
0.010
0.040
0.050
0.090
0.080
0.080
0.110
0.090
0.050
0.080
0.080
0.080
0.060
-0.120
-0.230
-0.330
-0.330
-0.390
-0.350
-0.410
-0.410
-0.470
-0.470
-0.510
-0.490
-0.430
-0.410
-0.370
-0.380
-0.380
-0.390
-0.390
-0.400
-0.390
-0.310
-0.250
-0.220
-0.160
-0.170
-0.160
-0.170
-0.110
-0.160
-0.170
-0.090
-0.080
-0.090
-0.100
-0.110
-0.060
-0.080
-0.070
0.010
0.040
0.070
0.040
0.070
0.050
0.040
-0.010
0.020
0.000
-0.030
-0.020
-0.030
-0.030
-0.060
-0.050
-0.080
-0.080
25.040
9.610
6.190
4.230
2.890
1.830
1.000
0.340
-0.190
-0.660
-0.960
-1.270
-1.450
-1.580
-1.700
-1.730
-1.780
-1.790
-1.820
-1.810
-1.820
-1.830
-1.820
-1.790
-1.720
-1.730
-1.790
-1.650
-1.570
-1.530
-1.490
-1.420
-1.430
-1.390
-1.320
-1.290
-1.230
-1.190
-1.130
-1.070
-1.050
-1.020
-0.740
-0.550
-0.470
-0.430
-0.430
-0.380
-0.340
-0.330
-0.250
-0.210
-0.230
-0.210
-0.200
-0.200
-0.190
-0.190
-0.200
-0.200
-0.170
-0.210
-0.240
-0.310
-0.360
-0.410
-0.400
-0.410
-0.410
-0.420
-0.410
-0.380
-0.350
-0.340
-0.330
-0.340
-0.310
-0.210
-0.160
-0.150
-0.100
-0.120
-0.090
-0.120
-0.110
-0.150
-0.150
-0.200
-0.230
-0.410
-0.420
-0.470
-0.500
-0.490
-0.560
-0.580
-0.570
-0.590
-0.550
-0.510
-0.480
-0.450
-0.400
-0.340
-0.330
-0.230
-0.180
-0.210
-0.180
-0.160
-0.090
-0.120
-0.110
-0.080
-0.070
-0.060
-0.030
-0.040
-0.050
-0.020
0.010
-0.030
-0.020
0.050
0.020
-0.110
0.030
0.060
0.060
0.030
0.050
0.060
0.080
0.090
0.070
0.060
0.080
0.040
0.040
0.010
-0.180
-0.270
-0.350
-0.370
-0.390
-0.390
-0.410
-0.460
-0.470
-0.490
-0.510
-0.470
-0.480
-0.430
-0.390
-0.420
-0.380
-0.390
-0.390
-0.380
-0.370
-0.350
-0.250
-0.220
-0.190
-0.190
-0.200
-0.190
-0.180
-0.120
-0.150
-0.140
-0.150
-0.140
-0.130
-0.250
-0.130
-0.120
-0.070
0.050
0.020
0.000
0.030
0.020
0.030
0.000
0.020
0.010
0.000
0.010
-0.010
-0.020
0.000
-0.040
-0.010
-0.070
-0.050
-0.040
-0.080
-0.090
-0.100
-0.110
-0.110
-0.120
-0.110
-0.140
-0.150
-0.140
-0.170
-0.150
-0.180
-0.170
-0.240
-0.230
-0.220
-0.250
-0.260
-0.240
-0.270
-0.280
-0.270
-0.410
-0.360
-0.330
-0.340
-0.330
-0.350
-0.360
-0.360
-0.350
-0.350
-0.340
-0.340
-0.380
-0.370
-0.370
-0.370
-0.330
-0.300
-0.090
-0.030
0.040
0.040
0.080
0.080
0.100
0.110
0.170
0.150
0.150
0.140
0.100
0.140
0.130
0.090
0.100
0.100
0.090
0.030
0.050
-0.020
-0.140
-0.140
-0.150
-0.180
-0.190
-0.180
-0.170
-0.210
-0.180
-0.190
-0.200
-0.170
-0.240
-0.250
-0.260
-0.230
-0.220
-0.250
-0.260
-0.250
22.520
10.450
6.330
4.280
2.910
1.830
1.000
0.310
-0.260
-0.710
-1.040
-1.260
-1.490
-1.590
-1.680
-1.710
-1.710
-1.700
-1.710
-1.730
-1.720
-1.650
-1.640
-1.550
-1.560
-1.490
-1.440
-1.360
-1.310
-1.240
-1.180
-1.090
-1.060
-1.010
-0.910
-0.860
-0.830
-0.780
-0.710
-0.640
-0.630
-0.620
-0.620
-0.530
-0.500
-0.450
-0.420
-0.380
-0.370
-0.350
-0.310
-0.320
-0.300
-0.320
-0.280
-0.310
-0.500
-0.560
-0.630
-0.650
-0.670
-0.650
-0.670
-0.710
-0.720
-0.780
-0.760
-0.730
-0.710
-0.650
-0.630
-0.610
-0.600
-0.580
-0.510
-0.460
-0.370
-0.320
-0.190
-0.090
-0.080
-0.050
0.020
0.020
0.010
-0.020
-0.030
-0.060
-0.110
-0.140
-0.170
-0.200
-0.240
-0.380
-0.350
-0.280
-0.330
0.130
-0.220
-0.240
-0.230
-0.200
-0.170
-0.090
-0.090
-0.040
-0.090
-0.080
-0.120
-0.090
-0.060
-0.030
-0.060
-0.050
-0.040
-0.030
-0.050
-0.040
-0.070
-0.100
-0.110
-0.110
-0.120
-0.130
-0.160
-0.170
-0.200
-0.210
-0.220
-0.250
-0.240
-0.270
-0.260
-0.320
-0.300
-0.340
-0.380
-0.370
-0.380
-0.340
-0.340
-0.380
-0.350
-0.360
-0.350
-0.500
-0.430
-0.360
-0.410
-0.370
-0.390
-0.370
-0.350
-0.360
-0.280
-0.070
-0.030
0.060
0.060
0.040
0.040
0.060
0.110
0.110
0.150
0.130
0.120
0.120
0.110
0.110
0.100
0.080
0.070
0.070
0.030
0.020
-0.040
0.350
0.060
-0.010
-0.050
-0.130
-0.160
-0.190
-0.200
-0.190
-0.270
-0.210
-0.200
-0.240
-0.250
-0.260
-0.250
-0.250
-0.240
-0.310
-0.370
-0.340
-0.360
-0.330
-0.320
-0.350
-0.340
-0.230
-0.250
-0.240
-0.280
-0.290
-0.240
-0.270
-0.250
-0.240
-0.210
-0.220
-0.230
-0.210
-0.200
-0.190
-0.180
-0.190
-0.150
-0.160
-0.190
-0.180
-0.150
-0.120
-0.130
-0.100
-0.110
-0.080
-0.070
-0.020
-0.010
-0.010
-0.020
0.010
0.000
0.020
0.010
0.000
0.020
0.010
0.050
0.040
0.040
0.070
0.030
0.060
0.080
0.080
0.060
0.050
0.010
-0.200
-0.370
-0.370
-0.390
-0.370
-0.350
-0.390
-0.420
-0.470
-0.450
-0.420
-0.460
-0.430
-0.420
-0.380
-0.400
-0.430
-0.440
-0.400
-0.410
-0.390
-0.340
-0.240
-0.230
-0.170
-0.200
-0.170
-0.180
19.510
12.220
7.030
4.810
3.330
2.180
1.350
0.630
0.070
-0.400
-0.770
-1.040
-1.200
-1.380
-1.430
-1.480
-1.550
-1.560
-1.570
-1.580
-1.570
-1.540
-1.510
-1.520
-1.430
-1.380
-1.330
-1.360
-1.300
-1.220
-1.190
-1.120
-1.100
-1.060
-1.010
-0.980
-0.940
-0.910
-0.880
-0.860
-0.830
-0.840
-0.820
-0.770
-0.780
-0.770
-0.780
-0.750
-0.780
-0.760
-0.730
-0.740
-0.750
-0.730
-0.710
-0.700
-0.710
-0.710
-0.700
-0.680
-0.710
-0.710
-0.740
-0.720
-0.720
-0.750
-0.730
-0.690
-0.650
-0.450
-0.260
-0.170
-0.110
-0.050
-0.050
0.040
0.100
0.130
0.220
0.260
0.300
0.310
0.310
0.320
0.130
0.170
0.160
0.070
0.000
-0.110
-0.220
-0.270
-0.410
-0.460
-0.460
-0.540
-0.550
-0.470
-0.420
-0.330
-0.300
-0.220
-0.230
-0.180
-0.210
-0.230
-0.240
-0.250
-0.260
-0.270
-0.250
-0.240
-0.270
-0.240
-0.230
-0.210
-0.310
-0.280
-0.290
-0.310
-0.300
-0.310
-0.280
-0.300
-0.290
-0.300
-0.250
-0.210
-0.220
-0.190
-0.240
-0.230
-0.190
-0.180
-0.210
-0.160
-0.210
-0.180
-0.180
-0.170
-0.120
-0.170
-0.230
-0.130
-0.080
0.010
-0.010
-0.020
-0.010
-0.020
-0.010
-0.010
-0.020
0.010
0.010
0.000
0.010
0.010
0.040
0.060
0.070
0.070
0.090
0.080
0.080
0.040
0.020
-0.010
-0.230
-0.270
-0.350
-0.390
-0.370
-0.390
-0.400
-0.470
-0.490
-0.490
-0.490
-0.500
-0.460
-0.420
-0.440
-0.400
-0.390
-0.410
-0.420
-0.410
-0.390
-0.340
-0.260
-0.210
-0.210
-0.180
-0.190
-0.160
-0.170
-0.150
-0.100
-0.110
-0.080
-0.090
-0.120
-0.110
-0.120
-0.070
-0.060
0.020
0.010
0.010
0.020
0.030
0.000
0.030
0.030
0.000
-0.030
0.000
-0.020
-0.030
-0.040
-0.070
-0.040
-0.050
-0.060
-0.070
-0.070
-0.060
-0.090
-0.080
-0.100
-0.090
-0.120
-0.170
-0.100
-0.130
-0.160
-0.130
-0.160
-0.150
-0.180
-0.190
-0.200
-0.250
-0.240
-0.250
-0.300
-0.310
-0.300
-0.350
-0.360
-0.320
-0.320
-0.380
-0.360
-0.360
-0.370
-0.440
-0.470
-0.410
-0.380
-0.390
-0.390
-0.390
-0.370
-0.310
-0.300
-0.090
-0.010
0.060
0.060
0.060
0.090
0.110
0.150
0.130
0.150
0.120
0.140
15.240
14.920
7.790
5.340
3.740
2.570
1.590
0.790
0.130
-0.370
-0.810
-1.090
-1.320
-1.520
-1.610
-1.660
-1.720
-1.750
-1.760
-1.750
-1.720
-1.730
-1.720
-1.710
-1.720
-1.710
-1.680
-1.610
-1.590
-1.510
-1.420
-1.410
-1.320
-1.250
-1.200
-1.190
-1.180
-1.140
-1.050
-0.990
-0.940
-0.920
-0.870
-0.820
-0.790
-0.750
-0.710
-0.680
-0.670
-0.640
-0.560
-0.550
-0.520
-0.530
-0.500
-0.490
-0.500
-0.450
-0.440
-0.430
-0.400
-0.390
-0.360
-0.350
-0.340
-0.350
-0.290
-0.270
-0.240
-0.210
-0.180
-0.180
-0.130
-0.090
-0.030
0.060
0.120
0.170
0.180
0.260
0.280
0.270
0.270
0.290
0.160
-0.080
-0.200
-0.290
-0.390
-0.460
-0.500
-0.550
-0.590
-0.680
-0.700
-0.680
-0.690
-0.770
-0.630
-0.570
-0.550
-0.540
-0.520
-0.530
-0.500
-0.430
-0.380
-0.310
-0.240
-0.250
-0.200
-0.170
-0.160
-0.140
-0.150
-0.140
-0.100
-0.110
-0.130
-0.120
-0.090
-0.080
-0.110
-0.010
0.020
0.010
0.020
0.040
0.010
0.020
0.050
0.000
0.020
0.010
0.000
-0.010
-0.070
-0.010
-0.050
-0.060
-0.100
-0.090
-0.120
-0.110
-0.130
-0.110
-0.120
-0.160
-0.190
-0.140
-0.200
-0.160
-0.150
-0.180
-0.190
-0.200
-0.210
-0.200
-0.250
-0.290
-0.250
-0.310
-0.290
-0.330
-0.310
-0.290
-0.350
-0.360
-0.360
-0.340
-0.330
-0.380
-0.360
-0.390
-0.370
-0.400
-0.380
-0.360
-0.360
-0.350
-0.350
-0.370
-0.330
-0.290
-0.110
0.020
0.040
0.060
0.090
0.070
0.110
0.110
0.110
0.130
0.140
0.120
0.130
0.110
0.090
0.140
0.160
0.110
0.120
0.050
-0.020
-0.050
-0.110
-0.150
-0.120
-0.150
-0.140
-0.170
-0.140
-0.160
-0.190
-0.180
-0.260
-0.270
-0.200
-0.220
-0.210
-0.200
-0.250
-0.240
-0.270
-0.250
-0.350
-0.250
-0.310
-0.250
-0.210
-0.270
-0.230
-0.310
-0.270
-0.260
-0.250
-0.280
-0.260
-0.270
-0.260
-0.250
-0.250
-0.220
-0.210
-0.220
-0.210
-0.220
-0.160
-0.190
-0.200
-0.170
-0.180
-0.150
-0.140
-0.130
-0.080
-0.070
-0.060
-0.070
-0.020
-0.030
-0.030
0.000
0.010
0.000
0.020
0.030
0.020
0.020
0.050
0.070
0.040
0.020
0.050
0.090
0.090
0.080
0.060
0.060
7.530
19.650
8.080
5.310
3.630
2.400
1.430
0.630
-0.130
-0.610
-1.010
-1.320
-1.530
-1.660
-1.770
-1.830
-1.830
-1.840
-1.890
-1.900
-1.880
-1.860
-1.790
-1.670
-1.550
-1.560
-1.480
-1.410
-1.360
-1.280
-1.240
-1.120
-1.090
-1.060
-0.960
-0.970
-0.900
-0.880
-0.800
-0.750
-0.740
-0.710
-0.700
-0.620
-0.600
-0.610
-0.580
-0.500
-0.490
-0.470
-0.480
-0.490
-0.440
-0.440
-0.450
-0.430
-0.400
-0.420
-0.390
-0.420
-0.450
-0.450
-0.460
-0.580
-0.460
-0.450
-0.460
-0.420
-0.340
-0.390
-0.340
-0.370
-0.360
-0.330
-0.320
-0.310
-0.250
-0.260
-0.250
-0.210
-0.180
-0.210
-0.200
-0.210
-0.210
-0.220
-0.230
-0.250
-0.300
-0.340
-0.440
-0.500
-0.570
-0.550
-0.640
-0.710
-0.730
-0.750
-0.350
-0.390
-0.310
-0.230
-0.140
-0.120
-0.100
-0.080
0.000
0.030
0.090
0.160
0.180
0.180
0.210
0.190
0.210
0.180
0.200
0.170
0.180
0.160
0.090
0.030
-0.090
-0.130
-0.120
-0.270
-0.180
-0.200
-0.190
-0.180
-0.170
-0.180
-0.190
-0.220
-0.210
-0.250
-0.230
-0.280
-0.270
-0.300
-0.380
-0.370
-0.370
-0.360
-0.370
-0.380
-0.370
-0.350
-0.320
-0.310
-0.320
-0.280
-0.310
-0.320
-0.310
-0.270
-0.260
-0.230
-0.240
-0.170
-0.190
-0.200
-0.210
-0.180
-0.150
-0.180
-0.160
-0.150
-0.140
-0.130
-0.100
-0.110
-0.100
-0.110
-0.100
-0.070
-0.040
-0.060
-0.050
-0.040
-0.010
-0.010
-0.020
0.010
-0.010
0.040
-0.010
-0.010
0.060
0.040
0.040
0.010
0.070
0.090
0.100
0.060
0.040
0.000
-0.260
-0.280
-0.360
-0.360
-0.420
-0.360
-0.360
-0.450
-0.470
-0.480
-0.460
-0.460
-0.420
-0.400
-0.420
-0.430
-0.410
-0.420
-0.430
-0.350
-0.340
-0.280
-0.180
-0.210
-0.180
-0.190
-0.180
-0.130
-0.120
-0.130
-0.100
-0.110
-0.120
-0.130
-0.120
-0.090
-0.100
-0.060
-0.040
0.010
0.020
0.010
0.020
0.020
-0.010
-0.040
0.030
0.040
0.030
0.040
0.030
0.020
0.040
0.010
0.020
-0.030
-0.030
-0.060
-0.090
-0.080
-0.100
-0.110
-0.140
-0.150
-0.140
-0.110
-0.140
-0.140
-0.130
-0.160
-0.190
-0.180
-0.210
-0.200
-0.250
-0.260
-0.260
-0.270
-0.260
-0.290
-0.320
-0.320
-0.360
25.410
9.000
5.730
3.860
2.540
1.500
0.700
0.050
-0.450
-0.910
-1.250
-1.470
-1.660
-1.780
-1.720
-1.620
-1.550
-1.530
-1.550
-1.490
-1.510
-1.430
-1.360
-1.360
-1.290
-1.290
-1.230
-1.150
-1.110
-1.070
-1.000
-0.950
-0.880
-0.870
-0.830
-0.860
-0.890
-0.910
-0.930
-0.870
-0.860
-0.860
-0.830
-0.800
-0.790
-0.780
-0.710
-0.660
-0.650
-0.640
-0.650
-0.590
-0.610
-0.610
-0.640
-0.630
-0.620
-0.630
-0.600
-0.620
-0.590
-0.600
-0.570
-0.590
-0.560
-0.530
-0.520
-0.520
-0.530
-0.500
-0.470
-0.410
-0.380
-0.390
-0.310
-0.280
-0.220
-0.150
-0.030
0.020
0.050
0.040
0.010
0.070
0.060
-0.060
-0.030
-0.080
-0.130
-0.170
-0.170
-0.220
-0.250
-0.300
-0.380
-0.390
-0.410
-0.380
-0.330
-0.260
-0.170
-0.130
-0.030
0.010
0.080
0.040
0.050
0.070
0.050
0.080
0.060
0.060
0.000
-0.190
-0.260
-0.320
-0.300
-0.340
-0.340
-0.340
-0.420
-0.450
-0.460
-0.460
-0.410
-0.430
-0.420
-0.420
-0.430
-0.430
-0.420
-0.400
-0.390
-0.420
-0.340
-0.260
-0.190
-0.200
-0.230
-0.190
-0.180
-0.170
-0.150
-0.120
-0.110
-0.310
-0.150
-0.140
-0.110
-0.120
-0.110
-0.030
0.010
-0.020
0.030
0.000
0.010
0.010
-0.020
-0.010
0.000
-0.010
0.020
-0.020
-0.030
-0.040
-0.010
0.000
-0.030
-0.060
-0.080
-0.090
-0.080
-0.090
-0.100
-0.140
-0.130
-0.140
-0.130
-0.140
-0.150
-0.160
-0.150
-0.180
-0.220
-0.220
-0.230
-0.240
-0.270
-0.280
-0.290
-0.280
-0.310
-0.290
-0.320
-0.330
-0.390
-0.370
-0.380
-0.350
-0.360
-0.360
-0.400
-0.370
-0.380
-0.640
-0.430
-0.370
-0.330
-0.330
-0.210
-0.040
0.030
0.090
0.070
0.070
0.110
0.130
0.150
0.150
0.150
0.180
0.140
0.140
0.130
0.130
0.120
0.080
0.110
0.090
0.080
0.040
-0.060
-0.090
-0.170
-0.120
-0.160
-0.150
-0.160
-0.170
-0.160
-0.190
-0.180
-0.210
-0.220
-0.190
-0.230
-0.190
-0.230
-0.240
-0.250
-0.290
-0.390
-0.360
-0.300
-0.340
-0.300
-0.310
-0.280
-0.310
-0.250
-0.280
-0.310
-0.340
-0.320
-0.310
-0.300
-0.270
-0.240
-0.280
-0.230
-0.220
-0.210
-0.220
-0.200
-0.190
-0.180
-0.190
-0.160
-0.150
22.840
10.540
6.550
4.520
3.140
2.080
1.240
0.580
-0.020
-0.430
-0.740
-1.030
-1.190
-1.310
-1.380
-1.440
-1.450
-1.470
-1.460
-1.490
-1.410
-1.390
-1.380
-1.340
-1.300
-1.270
-1.180
-1.160
-1.200
-1.350
-1.350
-1.370
-1.330
-1.290
-1.270
-1.250
-1.250
-1.200
-1.160
-1.150
-1.070
-1.020
-0.990
-0.950
-0.940
-0.900
-0.910
-0.950
-0.850
-0.790
-0.720
-0.620
-0.550
-0.550
-0.510
-0.460
-0.470
-0.420
-0.430
-0.420
-0.430
-0.420
-0.380
-0.420
-0.380
-0.370
-0.360
-0.310
-0.300
-0.290
-0.200
-0.170
-0.140
-0.060
0.010
0.010
0.070
0.080
0.090
0.110
0.120
0.090
0.120
0.100
0.090
0.020
-0.010
-0.040
-0.130
-0.180
-0.210
-0.280
-0.360
-0.440
-0.470
-0.420
-0.410
-0.370
-0.400
-0.390
-0.380
-0.370
-0.340
-0.350
-0.360
-0.560
-0.380
-0.330
-0.360
-0.400
-0.390
-0.400
-0.360
-0.320
-0.350
-0.350
-0.340
-0.320
-0.350
-0.310
-0.320
-0.360
-0.360
-0.350
-0.370
-0.330
-0.330
-0.210
-0.050
0.020
0.060
0.040
0.070
0.050
0.110
0.110
0.130
0.140
0.160
0.100
0.070
0.070
0.070
0.080
0.100
0.040
0.030
-0.070
-0.100
-0.160
-0.180
-0.210
-0.240
-0.230
-0.220
-0.230
-0.220
-0.220
-0.190
-0.200
-0.210
-0.200
-0.350
-0.280
-0.210
-0.300
-0.250
-0.300
-0.310
-0.310
-0.370
-0.360
-0.350
-0.320
-0.320
-0.290
-0.300
-0.290
-0.270
-0.260
-0.290
-0.260
-0.280
-0.270
-0.240
-0.210
-0.210
-0.200
-0.190
-0.160
-0.150
-0.160
-0.160
-0.170
-0.180
-0.130
-0.160
-0.130
-0.120
-0.110
-0.100
-0.090
-0.060
-0.030
-0.020
-0.030
-0.030
-0.040
-0.050
0.000
0.040
0.010
0.040
0.060
0.050
0.090
0.100
0.080
0.010
0.030
0.070
0.100
0.100
0.080
-0.070
-0.240
-0.290
-0.310
-0.370
-0.370
-0.370
-0.400
-0.450
-0.450
-0.490
-0.490
-0.430
-0.430
-0.370
-0.380
-0.380
-0.390
-0.410
-0.400
-0.380
-0.350
-0.300
-0.190
-0.160
-0.190
-0.110
-0.120
-0.150
-0.090
-0.120
-0.110
-0.120
-0.110
-0.140
-0.130
-0.100
-0.110
-0.120
-0.100
-0.020
0.010
0.020
0.030
0.040
-0.150
-0.010
-0.020
0.030
0.040
0.030
0.020
0.050
0.010
0.000
-0.060
19.150
12.460
7.060
4.820
3.310
2.190
1.280
0.560
-0.020
-0.510
-0.860
-1.130
-1.350
-1.510
-1.600
-1.680
-1.750
-1.760
-1.790
-1.760
-1.810
-1.800
-1.790
-1.780
-1.760
-1.700
-1.670
-1.620
-1.560
-1.520
-1.470
-1.410
-1.400
-1.330
-1.320
-1.260
-1.270
-1.210
-1.180
-1.150
-1.090
-1.070
-1.010
-0.800
-0.660
-0.510
-0.530
-0.450
-0.430
-0.380
-0.290
-0.270
-0.230
-0.160
-0.180
-0.130
-0.200
-0.160
-0.190
-0.180
-0.130
-0.190
-0.210
-0.200
-0.130
-0.290
-0.390
-0.400
-0.400
-0.410
-0.400
-0.410
-0.360
-0.350
-0.300
-0.220
-0.190
-0.140
-0.150
-0.120
-0.090
-0.100
-0.130
-0.130
-0.140
-0.180
-0.210
-0.240
-0.310
-0.440
-0.450
-0.490
-0.500
-0.500
-0.550
-0.600
-0.660
-0.810
-0.650
-0.550
-0.520
-0.420
-0.390
-0.340
-0.280
-0.220
-0.170
-0.160
-0.150
-0.160
-0.150
-0.150
-0.120
-0.130
-0.140
-0.110
-0.060
-0.070
-0.080
-0.050
-0.040
-0.060
-0.030
0.020
0.030
0.060
0.060
0.070
0.060
0.040
0.090
0.070
0.060
0.040
0.090
0.030
0.050
0.080
0.060
0.000
0.000
-0.180
-0.290
-0.330
-0.370
-0.370
-0.370
-0.410
-0.500
-0.490
-0.510
-0.510
-0.470
-0.460
-0.430
-0.430
-0.400
-0.420
-0.430
-0.430
-0.460
-0.410
-0.370
-0.230
-0.200
-0.200
-0.190
-0.160
-0.150
-0.130
-0.100
-0.110
-0.090
-0.100
-0.110
-0.090
-0.060
-0.070
-0.080
-0.090
0.050
0.020
0.010
0.030
0.020
0.030
0.020
0.030
0.030
-0.020
-0.030
0.000
-0.020
0.000
-0.010
-0.020
-0.040
-0.050
-0.170
-0.120
-0.090
-0.060
-0.090
-0.100
-0.070
-0.110
-0.120
-0.090
-0.080
-0.150
-0.140
-0.170
-0.160
-0.180
-0.190
-0.200
-0.200
-0.230
-0.240
-0.250
-0.330
-0.310
-0.350
-0.320
-0.360
-0.370
-0.340
-0.380
-0.390
-0.410
-0.370
-0.400
-0.380
-0.380
-0.410
-0.370
-0.390
-0.370
-0.360
-0.170
-0.050
-0.010
0.040
-0.010
0.040
0.040
0.040
0.120
0.150
0.170
0.150
0.150
0.120
0.100
0.090
0.110
0.290
0.180
0.130
0.090
0.050
-0.040
-0.080
-0.090
-0.100
-0.180
-0.180
-0.210
-0.200
-0.190
-0.220
-0.190
-0.180
-0.230
-0.220
-0.240
-0.250
-0.190
-0.260
-0.290
13.250
15.510
7.480
5.020
3.430
2.200
1.260
0.560
-0.080
-0.570
-0.900
-1.200
-1.390
-1.550
-1.670
-1.700
-1.720
-1.710
-1.770
-1.730
-1.710
-1.680
-1.650
-1.620
-1.590
-1.530
-1.480
-1.400
-1.350
-1.280
-1.200
-1.150
-1.080
-1.030
-0.980
-0.940
-0.850
-0.800
-0.770
-0.720
-0.670
-0.620
-0.570
-0.540
-0.520
-0.460
-0.410
-0.390
-0.380
-0.360
-0.350
-0.330
-0.290
-0.260
-0.260
-0.280
-0.270
-0.370
-0.520
-0.580
-0.630
-0.630
-0.630
-0.670
-0.690
-0.750
-0.770
-0.850
-0.760
-0.700
-0.670
-0.650
-0.560
-0.550
-0.490
-0.450
-0.370
-0.340
-0.260
-0.180
-0.080
-0.010
-0.020
-0.020
0.030
0.000
-0.010
-0.040
-0.070
-0.080
-0.130
-0.180
-0.240
-0.270
-0.320
-0.330
-0.380
-0.390
-0.400
-0.340
-0.330
-0.270
-0.260
-0.230
-0.150
-0.090
-0.080
-0.090
-0.200
-0.140
-0.090
-0.090
-0.030
-0.020
-0.010
-0.050
-0.040
-0.070
-0.100
-0.050
-0.070
-0.060
-0.090
-0.100
-0.070
-0.070
-0.100
-0.130
-0.140
-0.150
-0.180
-0.210
-0.200
-0.270
-0.260
-0.270
-0.260
-0.260
-0.310
-0.300
-0.330
-0.330
-0.370
-0.350
-0.380
-0.360
-0.400
-0.400
-0.350
-0.360
-0.360
-0.390
-0.390
-0.370
-0.360
-0.360
-0.170
-0.090
0.020
-0.010
-0.010
0.020
-0.010
0.060
0.120
0.130
0.130
0.110
0.130
-0.070
0.040
0.090
0.090
0.120
0.080
0.090
0.070
-0.030
-0.060
-0.150
-0.110
-0.150
-0.160
-0.150
-0.160
-0.160
-0.190
-0.240
-0.170
-0.200
-0.210
-0.220
-0.250
-0.220
-0.270
-0.280
-0.270
-0.260
-0.250
-0.270
-0.280
-0.320
-0.350
-0.310
-0.340
-0.330
-0.280
-0.280
-0.290
-0.280
-0.330
-0.290
-0.280
-0.250
-0.240
-0.220
-0.230
-0.350
-0.230
-0.220
-0.180
-0.190
-0.160
-0.170
-0.180
-0.170
-0.160
-0.110
-0.130
-0.100
-0.090
-0.100
-0.080
-0.070
-0.040
-0.030
-0.040
0.030
0.010
0.000
0.010
0.060
0.060
0.090
0.070
0.080
0.100
0.110
0.070
0.080
0.100
0.080
0.080
0.070
-0.100
-0.250
-0.310
-0.350
-0.370
-0.370
-0.370
-0.410
-0.410
-0.480
-0.490
-0.490
-0.450
-0.460
-0.430
-0.410
-0.380
-0.380
-0.410
-0.510
-0.420
-0.350
-0.290
-0.210
-0.220
-0.210
-0.150
4.640
21.700
8.540
5.660
3.950
2.680
1.700
0.930
0.290
-0.230
-0.610
-0.900
-1.160
-1.310
-1.420
-1.500
-1.480
-1.540
-1.540
-1.550
-1.510
-1.500
-1.520
-1.510
-1.480
-1.450
-1.400
-1.370
-1.280
-1.220
-1.220
-1.190
-1.140
-1.110
-1.060
-1.050
-1.040
-0.990
-0.930
-0.950
-0.860
-0.830
-0.820
-0.760
-0.900
-0.510
-0.730
-0.720
-0.690
-0.720
-0.710
-0.740
-0.700
-0.710
-0.710
-0.700
-0.690
-0.700
-0.660
-0.670
-0.700
-0.680
-0.710
-0.690
-0.720
-0.680
-0.680
-0.710
-0.690
-0.690
-0.620
-0.400
-0.260
-0.150
-0.050
0.020
0.040
0.100
0.120
0.160
0.250
0.300
0.320
0.320
0.280
0.230
0.200
0.150
0.070
0.010
0.030
-0.040
-0.070
-0.160
-0.290
-0.370
-0.450
-0.530
-0.620
-0.670
-0.660
-0.590
-0.430
-0.380
-0.330
-0.230
-0.250
-0.210
-0.270
-0.300
-0.310
-0.410
-0.440
-0.430
-0.410
-0.290
-0.260
-0.320
-0.300
-0.200
-0.170
-0.160
-0.120
-0.130
-0.120
-0.170
-0.200
-0.160
-0.200
-0.210
-0.190
-0.200
-0.190
-0.220
-0.200
-0.170
-0.120
-0.190
-0.200
-0.210
-0.180
-0.160
-0.150
-0.140
-0.130
-0.140
-0.150
-0.100
-0.090
-0.080
-0.060
-0.070
-0.040
-0.050
-0.020
-0.130
-0.050
0.000
-0.040
0.010
0.010
0.020
0.040
0.030
0.050
0.060
0.060
0.040
0.020
0.030
-0.100
-0.270
-0.350
-0.410
-0.370
-0.370
-0.370
-0.370
-0.410
-0.450
-0.470
-0.470
-0.470
-0.430
-0.430
-0.400
-0.360
-0.370
-0.390
-0.360
-0.360
-0.350
-0.270
-0.210
-0.140
-0.170
-0.180
-0.150
-0.170
-0.160
-0.120
-0.130
-0.140
-0.090
-0.080
-0.110
-0.040
-0.050
-0.110
-0.120
0.000
0.030
0.000
0.030
0.030
0.060
0.030
0.040
0.050
0.040
0.000
0.020
-0.030
-0.040
-0.020
-0.010
-0.030
-0.060
-0.050
-0.110
-0.080
-0.110
-0.120
-0.130
-0.140
-0.160
-0.150
-0.140
-0.150
-0.180
-0.150
-0.160
-0.170
-0.180
-0.210
-0.240
-0.230
-0.240
-0.270
-0.300
-0.270
-0.300
-0.320
-0.310
-0.320
-0.390
-0.380
-0.360
-0.360
-0.420
-0.400
-0.360
-0.380
-0.380
-0.390
-0.440
-0.350
-0.340
-0.340
-0.280
-0.090
0.040
0.080
0.100
0.060
0.060
0.100
0.140
0.150
0.150
0.150
0.120
25.390
9.670
6.250
4.380
3.040
1.990
1.140
0.480
-0.070
-0.630
-0.980
-1.200
-1.410
-1.570
-1.640
-1.720
-1.730
-1.760
-1.770
-1.740
-1.730
-1.720
-1.730
-1.680
-1.650
-1.590
-1.580
-1.540
-1.470
-1.120
-1.350
-1.310
-1.250
-1.200
-1.170
-1.160
-1.060
-1.020
-0.970
-0.980
-0.900
-0.910
-0.880
-0.830
-0.810
-0.820
-0.770
-0.710
-0.680
-0.640
-0.590
-0.560
-0.550
-0.520
-0.520
-0.510
-0.480
-0.450
-0.440
-0.410
-0.380
-0.390
-0.330
-0.350
-0.310
-0.280
-0.300
-0.270
-0.240
-0.190
-0.170
-0.160
-0.150
-0.090
-0.010
0.030
0.120
0.210
0.260
0.260
0.290
0.310
0.290
0.250
0.170
0.030
-0.200
-0.290
-0.500
-0.520
-0.540
-0.580
-0.670
-0.750
-0.780
-0.780
-0.780
-0.680
-0.620
-0.540
-0.510
-0.490
-0.480
-0.450
-0.530
-0.440
-0.410
-0.340
-0.310
-0.260
-0.250
-0.220
-0.190
-0.180
-0.110
-0.080
-0.110
-0.060
-0.090
-0.040
-0.070
-0.050
-0.060
-0.050
0.030
0.060
0.070
0.080
0.060
0.030
0.020
0.030
0.040
0.020
0.040
0.000
-0.010
-0.030
-0.010
0.000
-0.040
-0.050
-0.090
-0.120
-0.120
-0.130
-0.140
-0.080
-0.130
-0.150
-0.160
-0.150
-0.160
-0.150
-0.180
-0.210
-0.200
-0.210
-0.220
-0.210
-0.260
-0.250
-0.260
-0.340
-0.330
-0.310
-0.320
-0.300
-0.310
-0.320
-0.340
-0.350
-0.390
-0.360
-0.420
-0.400
-0.380
-0.340
-0.360
-0.420
-0.390
-0.390
-0.380
-0.360
-0.150
-0.030
0.040
0.020
0.060
0.040
0.060
0.100
0.130
0.130
0.110
0.130
0.120
0.100
0.090
0.090
0.090
0.080
0.090
0.090
0.080
0.010
-0.080
-0.160
-0.150
-0.160
-0.160
-0.190
-0.180
-0.190
-0.200
-0.190
-0.220
-0.190
-0.180
-0.210
-0.250
-0.220
-0.250
-0.250
-0.280
-0.270
-0.280
-0.250
-0.290
-0.310
-0.300
-0.260
-0.250
-0.280
-0.310
-0.280
-0.290
-0.250
-0.280
-0.250
-0.240
-0.240
-0.230
-0.200
-0.210
-0.210
-0.180
-0.190
-0.200
-0.170
-0.170
-0.160
-0.170
-0.160
-0.150
-0.140
-0.110
-0.120
-0.110
-0.080
-0.070
-0.080
0.100
-0.050
-0.060
-0.050
0.020
0.020
0.010
0.040
0.020
0.010
0.010
0.080
0.060
0.070
0.050
0.080
0.120
0.060
0.080
22.570
10.860
6.470
4.300
2.890
1.790
0.970
0.240
-0.350
-0.810
-1.180
-1.410
-1.620
-1.740
-1.800
-1.870
-1.900
-1.900
-1.910
-1.950
-1.900
-1.840
-1.800
-1.660
-1.610
-1.530
-1.390
-1.380
-1.280
-1.270
-1.200
-1.140
-1.110
-1.040
-1.010
-0.970
-0.900
-0.870
-0.790
-0.740
-0.690
-0.650
-0.600
-0.600
-0.550
-0.560
-0.530
-0.490
-0.470
-0.480
-0.430
-0.420
-0.500
-0.470
-0.460
-0.420
-0.420
-0.370
-0.400
-0.390
-0.430
-0.420
-0.390
-0.420
-0.540
-0.490
-0.460
-0.470
-0.440
-0.380
-0.370
-0.340
-0.290
-0.290
-0.250
-0.200
-0.180
-0.130
-0.120
-0.110
-0.120
-0.100
-0.160
-0.160
-0.210
-0.240
-0.290
-0.380
-0.470
-0.550
-0.610
-0.650
-0.680
-0.720
-0.740
-0.750
-0.750
-0.690
-0.640
-0.510
-0.220
-0.130
-0.030
0.020
0.080
0.100
0.160
0.160
0.190
0.190
0.170
0.110
0.100
0.080
0.050
0.050
0.080
0.080
0.070
0.040
0.010
-0.040
-0.100
-0.160
-0.150
-0.140
-0.240
-0.190
-0.200
-0.210
-0.180
-0.190
-0.180
-0.190
-0.200
-0.190
-0.180
-0.170
-0.240
-0.270
-0.280
-0.290
-0.280
-0.290
-0.320
-0.310
-0.340
-0.330
-0.350
-0.340
-0.350
-0.260
-0.300
-0.310
-0.300
-0.330
-0.310
-0.260
-0.270
-0.260
-0.240
-0.250
-0.220
-0.190
-0.200
-0.190
-0.210
-0.200
-0.170
-0.140
-0.150
-0.120
-0.110
-0.080
-0.090
-0.080
-0.070
-0.020
-0.050
-0.020
0.000
0.010
0.020
0.050
0.030
0.020
0.040
0.030
0.060
-0.070
0.010
0.050
0.070
0.100
0.100
0.120
0.060
0.050
-0.100
-0.270
-0.330
-0.390
-0.350
-0.350
-0.390
-0.390
-0.440
-0.470
-0.490
-0.470
-0.460
-0.410
-0.390
-0.400
-0.400
-0.370
-0.390
-0.380
-0.370
-0.350
-0.270
-0.200
-0.200
-0.170
-0.160
-0.150
-0.180
-0.100
-0.090
-0.120
-0.110
-0.140
-0.110
-0.120
-0.110
-0.100
-0.110
0.010
-0.020
0.030
0.030
0.000
0.010
0.020
-0.010
0.010
0.020
-0.010
-0.060
-0.020
-0.030
-0.040
-0.020
-0.020
-0.010
-0.040
-0.070
-0.090
-0.100
-0.090
-0.080
-0.100
-0.110
-0.100
-0.090
-0.120
-0.110
-0.120
-0.160
-0.150
-0.160
-0.170
-0.200
-0.230
-0.240
-0.260
-0.270
-0.280
-0.340
-0.350
-0.380
18.270
12.450
6.840
4.570
3.040
1.930
0.990
0.280
-0.280
-0.760
-1.130
-1.430
-1.590
-1.720
-1.790
-1.840
-1.650
-1.580
-1.520
-1.520
-1.520
-1.540
-1.480
-1.390
-1.330
-1.240
-1.190
-1.110
-1.080
-1.020
-1.020
-1.070
-0.900
-0.870
-0.820
-0.800
-0.810
-0.830
-0.900
-0.870
-0.820
-0.850
-0.830
-0.780
-0.770
-0.760
-0.750
-0.680
-0.690
-0.660
-0.650
-0.660
-0.650
-0.640
-0.630
-0.670
-0.660
-0.630
-0.660
-0.630
-0.610
-0.580
-0.590
-0.620
-0.560
-0.590
-0.600
-0.550
-0.550
-0.500
-0.490
-0.480
-0.400
-0.390
-0.290
-0.280
-0.180
-0.170
-0.140
0.000
0.010
0.010
0.040
0.030
0.040
-0.040
-0.050
-0.100
-0.170
-0.250
-0.390
-0.290
-0.300
-0.310
-0.300
-0.320
-0.360
-0.330
-0.300
-0.220
-0.200
-0.150
-0.050
0.010
0.080
0.100
0.110
0.070
0.050
0.060
0.060
0.040
0.050
0.030
-0.160
-0.270
-0.370
-0.370
-0.350
-0.350
-0.350
-0.370
-0.390
-0.450
-0.420
-0.450
-0.400
-0.390
-0.410
-0.420
-0.420
-0.370
-0.410
-0.380
-0.360
-0.350
-0.270
-0.220
-0.220
-0.250
-0.200
-0.210
-0.180
-0.140
-0.140
-0.110
-0.140
-0.130
-0.100
-0.100
-0.320
-0.180
-0.090
-0.080
0.020
0.030
0.010
0.020
0.050
0.020
0.010
-0.030
-0.020
-0.010
-0.020
-0.020
-0.030
-0.010
-0.020
-0.020
-0.010
-0.020
-0.040
-0.070
-0.100
-0.110
-0.100
-0.140
-0.150
-0.160
-0.150
-0.120
-0.130
-0.150
-0.160
-0.190
-0.220
-0.230
-0.220
-0.230
-0.260
-0.250
-0.250
-0.260
-0.270
-0.300
-0.330
-0.330
-0.340
-0.310
-0.330
-0.340
-0.340
-0.400
-0.350
-0.360
-0.380
-0.390
-0.440
-0.480
-0.400
-0.320
-0.340
-0.090
0.020
0.040
0.080
0.060
0.040
0.060
0.080
0.120
0.150
0.130
0.150
0.120
0.120
0.100
0.110
0.470
0.200
0.160
0.130
0.080
-0.010
-0.120
-0.140
-0.150
-0.150
-0.200
-0.170
-0.200
-0.230
-0.180
-0.190
-0.200
-0.190
-0.220
-0.190
-0.250
-0.220
-0.270
-0.270
-0.260
-0.290
-0.300
-0.290
-0.270
-0.330
-0.320
-0.310
-0.330
-0.320
-0.460
-0.340
-0.300
-0.290
-0.110
-0.160
-0.230
-0.200
-0.190
-0.200
-0.220
-0.230
-0.200
-0.190
-0.180
-0.200
-0.210
-0.180
13.300
15.700
7.700
5.200
3.630
2.420
1.490
0.780
0.200
-0.310
-0.660
-0.930
-1.100
-1.290
-1.370
-1.460
-1.460
-1.470
-1.440
-1.490
-1.450
-1.410
-1.400
-1.360
-1.290
-1.270
-1.220
-1.200
-1.150
-1.110
-1.240
-1.300
-1.320
-1.280
-1.260
-1.240
-1.170
-1.170
-1.150
-1.150
-1.140
-1.060
-1.030
-1.070
-0.960
-0.950
-0.840
-0.900
-0.830
-0.820
-0.780
-0.690
-0.630
-0.550
-0.520
-0.460
-0.470
-0.500
-0.450
-0.410
-0.380
-0.370
-0.350
-0.360
-0.370
-0.350
-0.360
-0.350
-0.340
-0.310
-0.250
-0.240
-0.180
-0.150
-0.140
0.000
0.030
0.060
0.090
0.140
0.150
0.170
0.160
0.170
0.130
0.100
0.010
-0.060
-0.170
-0.220
-0.290
-0.280
-0.290
-0.310
-0.450
-0.500
-0.550
-0.540
-0.570
-0.570
-0.600
