0.030
0.000
0.010
0.040
0.030
0.020
-0.010
0.000
0.010
-0.020
-0.030
-0.020
-0.030
-0.060
-0.050
-0.060
-0.040
-0.100
-0.100
-0.110
-0.120
-0.100
-0.150
-0.160
-0.190
-0.220
-0.210
-0.200
-0.210
-0.200
-0.230
-0.240
-0.250
-0.250
-0.320
-0.290
-0.300
-0.280
-0.270
-0.280
-0.280
-0.290
-0.320
-0.300
-0.280
-0.280
-0.290
-0.290
-0.300
-0.300
-0.340
-0.310
-0.310
-0.310
-0.350
-0.320
-0.280
-0.220
-0.070
0.000
0.020
0.040
0.020
0.000
0.030
0.070
0.100
0.070
0.100
0.100
0.080
0.060
0.080
0.030
0.030
0.040
0.020
0.000
-0.030
-0.090
-0.130
-0.160
-0.160
-0.190
-0.180
-0.180
-0.190
-0.160
-0.190
-0.190
-0.200
-0.220
-0.160
-0.220
-0.250
-0.270
-0.280
-0.250
-0.280
-0.270
-0.470
-0.400
-0.310
-0.300
-0.220
-0.210
-0.290
-0.260
-0.220
-0.260
-0.230
-0.280
-0.250
-0.220
-0.230
-0.240
-0.210
-0.200
-0.190
-0.180
-0.190
-0.180
-0.170
-0.100
-0.150
-0.120
-0.130
-0.100
-0.090
-0.060
-0.080
-0.090
-0.060
-0.070
-0.040
-0.020
0.010
0.000
-0.040
-0.010
0.000
-0.020
0.030
-0.010
0.020
-0.020
0.010
-0.010
0.020
0.000
0.020
0.020
0.010
-0.010
-0.010
-0.030
-0.240
-0.310
-0.320
-0.360
-0.360
-0.380
-0.370
-0.390
-0.410
-0.490
-0.450
-0.410
-0.400
-0.360
-0.320
-0.350
-0.350
-0.310
-0.340
-0.340
-0.300
-0.250
-0.210
-0.180
-0.180
-0.190
-0.130
-0.130
-0.120
-0.130
-0.140
-0.120
-0.090
-0.120
-0.130
-0.100
-0.110
-0.070
0.010
0.000
-0.010
0.020
-0.010
0.020
0.010
0.000
-0.010
-0.020
-0.030
-0.020
-0.030
-0.040
-0.050
-0.040
-0.050
-0.080
-0.070
-0.080
-0.090
-0.100
-0.110
-0.120
-0.130
-0.160
-0.190
-0.200
-0.190
-0.200
-0.190
-0.220
-0.290
-0.240
-0.240
-0.250
-0.240
-0.250
-0.280
-0.260
-0.270
-0.300
-0.280
-0.290
-0.320
-0.320
-0.330
-0.330
-0.320
-0.320
-0.330
-0.300
-0.300
-0.310
-0.340
-0.310
-0.350
-0.350
-0.320
-0.300
-0.160
-0.070
-0.010
0.000
0.020
0.050
0.030
0.050
0.070
0.100
0.200
0.140
0.110
0.060
0.060
0.090
0.050
0.060
0.020
0.000
-0.030
-0.120
-0.130
-0.180
-0.200
-0.210
-0.200
-0.180
-0.210
-0.200
-0.170
-0.210
-0.230
-0.300
-0.250
-0.220
-0.230
-0.230
-0.280
-0.250
-0.280
-0.270
-0.260
-0.270
-0.330
-0.250
-0.310
-0.230
-0.290
-0.260
-0.290
-0.260
-0.270
-0.280
-0.290
-0.240
-0.250
-0.220
-0.230
-0.240
-0.210
-0.240
-0.210
-0.180
-0.170
-0.180
-0.150
-0.120
-0.130
-0.140
-0.090
-0.100
-0.120
-0.090
-0.060
-0.070
-0.060
-0.040
-0.050
-0.060
-0.040
-0.070
-0.060
-0.040
-0.030
-0.010
0.000
-0.100
-0.050
0.010
-0.010
0.020
0.040
0.020
0.050
0.010
-0.010
-0.010
-0.220
-0.280
-0.330
-0.370
-0.350
-0.370
-0.390
-0.390
-0.430
-0.390
-0.450
-0.410
-0.420
-0.400
-0.360
-0.370
-0.350
-0.360
-0.340
-0.310
-0.320
-0.240
-0.210
-0.180
-0.150
-0.160
-0.130
-0.110
-0.140
-0.130
-0.150
-0.120
-0.130
-0.120
-0.130
-0.120
-0.080
0.000
-0.030
0.000
-0.010
0.000
0.010
-0.020
-0.030
0.000
0.010
0.000
-0.030
-0.020
-0.030
-0.210
-0.090
-0.060
-0.050
-0.060
-0.070
-0.050
-0.090
-0.100
-0.080
-0.090
-0.130
-0.110
-0.170
-0.180
-0.170
-0.200
-0.190
-0.200
-0.250
-0.230
-0.260
-0.250
-0.240
-0.290
-0.250
-0.280
-0.270
-0.300
-0.250
-0.310
-0.300
-0.300
-0.310
-0.310
-0.340
-0.340
-0.330
-0.330
-0.330
-0.310
-0.310
-0.310
-0.350
-0.350
-0.320
-0.300
-0.200
-0.070
-0.050
0.010
0.030
0.010
0.030
0.030
0.070
-0.030
0.050
0.100
0.080
0.080
0.080
0.070
0.070
0.080
0.060
0.060
0.030
-0.030
-0.090
-0.140
-0.140
-0.130
-0.120
-0.200
-0.190
-0.180
-0.180
-0.170
-0.180
-0.170
-0.160
-0.170
-0.220
-0.230
-0.240
-0.230
-0.260
-0.250
-0.330
-0.270
-0.330
-0.300
-0.310
-0.280
-0.270
-0.300
-0.270
-0.260
-0.250
-0.240
-0.270
-0.240
-0.230
-0.260
-0.250
-0.240
-0.210
-0.220
-0.150
-0.180
-0.130
-0.180
-0.190
-0.140
-0.090
-0.080
-0.070
-0.070
-0.010
-0.070
-0.040
-0.050
-0.070
-0.020
-0.030
-0.020
-0.020
0.010
-0.010
-0.020
-0.010
-0.030
0.000
0.020
0.010
0.010
0.010
0.000
0.020
0.000
0.010
0.010
-0.010
-0.030
-0.180
-0.280
-0.350
-0.370
-0.350
-0.370
-0.370
-0.410
-0.430
-0.410
-0.410
-0.410
-0.400
-0.360
-0.360
-0.410
-0.370
-0.380
-0.360
-0.340
-0.300
-0.410
-0.250
-0.200
-0.150
-0.140
-0.150
-0.130
-0.120
-0.130
-0.110
-0.140
-0.090
-0.100
-0.110
-0.100
-0.010
0.020
0.010
0.020
-0.010
0.000
0.010
0.000
0.030
0.020
0.030
0.020
-0.030
-0.020
-0.030
-0.060
-0.030
-0.040
-0.050
-0.030
-0.040
-0.080
-0.090
-0.100
-0.110
-0.120
-0.130
-0.140
-0.170
-0.180
-0.210
-0.220
-0.210
-0.220
-0.230
-0.210
-0.320
-0.270
-0.260
-0.250
-0.220
-0.230
-0.270
-0.250
-0.280
-0.310
-0.290
-0.300
-0.310
-0.310
-0.320
-0.320
-0.330
-0.300
-0.300
-0.310
-0.340
-0.290
-0.350
-0.320
-0.300
-0.300
-0.180
-0.050
-0.010
0.030
0.030
0.030
0.050
0.030
0.100
0.050
0.120
0.100
0.080
0.060
0.080
0.050
0.050
0.050
0.040
0.020
0.010
-0.030
-0.130
-0.160
-0.180
-0.150
-0.140
-0.330
-0.260
-0.180
-0.200
-0.170
-0.180
-0.190
-0.180
-0.170
-0.170
-0.210
-0.220
-0.250
-0.260
-0.270
-0.300
-0.250
-0.260
-0.270
-0.290
-0.250
-0.220
-0.280
-0.270
-0.210
-0.250
-0.260
-0.180
-0.240
-0.230
-0.220
-0.210
-0.240
-0.190
-0.220
-0.190
-0.160
-0.170
-0.120
-0.130
-0.120
-0.110
-0.080
-0.110
-0.070
-0.080
-0.090
-0.100
-0.070
-0.050
-0.060
-0.050
-0.060
-0.100
-0.050
-0.030
0.020
0.010
-0.010
0.040
-0.020
0.010
0.010
0.030
0.020
0.020
0.000
0.010
0.030
0.010
-0.010
-0.030
-0.240
-0.310
-0.330
-0.370
-0.370
-0.370
-0.370
-0.410
-0.410
-0.430
-0.410
-0.420
-0.380
-0.360
-0.370
-0.350
-0.330
-0.360
-0.340
-0.300
-0.280
-0.190
-0.180
-0.180
-0.190
-0.160
-0.170
-0.140
-0.130
-0.130
-0.180
-0.150
-0.140
-0.110
-0.110
-0.060
-0.020
-0.010
0.020
0.010
0.040
0.030
0.000
0.030
-0.020
-0.010
0.000
-0.010
-0.020
-0.010
-0.040
-0.050
-0.060
-0.070
-0.080
-0.070
-0.080
-0.060
-0.070
-0.110
-0.090
-0.150
-0.140
-0.170
-0.200
-0.170
-0.200
-0.190
-0.200
-0.220
-0.230
-0.220
-0.230
-0.240
-0.250
-0.270
-0.280
-0.270
-0.310
-0.280
-0.330
-0.310
-0.300
-0.330
-0.370
-0.380
-0.360
-0.350
-0.300
-0.330
-0.310
-0.310
-0.310
-0.300
-0.320
-0.300
-0.280
-0.160
-0.030
-0.010
0.050
0.050
0.030
0.030
0.030
0.050
0.070
0.120
0.100
0.060
0.060
0.040
0.050
0.070
-0.010
0.060
0.040
0.010
-0.050
-0.090
-0.120
-0.160
-0.170
-0.190
-0.180
-0.150
-0.200
-0.200
-0.240
-0.180
-0.190
-0.180
-0.330
-0.240
-0.290
-0.240
-0.250
-0.240
-0.250
-0.300
-0.290
-0.260
-0.270
-0.290
-0.230
-0.270
-0.280
-0.290
-0.240
-0.250
-0.260
-0.290
-0.260
-0.270
-0.240
-0.230
-0.260
-0.190
-0.200
-0.190
-0.180
-0.150
-0.160
-0.130
-0.120
-0.110
-0.120
-0.100
-0.130
-0.080
-0.050
-0.060
-0.070
-0.030
-0.040
-0.030
-0.030
-0.020
-0.010
-0.030
-0.020
0.010
-0.030
-0.020
0.000
-0.010
-0.010
0.010
0.000
0.000
-0.040
-0.070
-0.030
0.010
0.010
-0.050
-0.220
-0.280
-0.300
-0.340
-0.370
-0.370
-0.370
-0.390
-0.410
-0.410
-0.410
-0.400
-0.380
-0.380
-0.370
-0.330
-0.370
-0.360
-0.340
-0.350
-0.280
-0.250
-0.190
-0.200
-0.160
-0.140
-0.130
-0.140
-0.130
-0.150
-0.160
-0.150
-0.140
-0.150
-0.090
-0.100
-0.040
-0.010
0.000
0.010
0.000
0.010
-0.020
-0.010
-0.020
0.010
0.000
-0.030
-0.100
-0.030
-0.060
-0.030
-0.060
-0.050
-0.060
-0.040
-0.050
-0.060
-0.100
-0.080
-0.090
-0.130
-0.140
-0.170
-0.160
-0.170
-0.200
-0.210
-0.220
-0.220
-0.230
-0.220
-0.230
-0.260
-0.250
-0.250
-0.280
-0.290
-0.290
-0.280
-0.260
-0.290
-0.300
-0.310
-0.310
-0.340
-0.290
-0.330
-0.330
-0.300
-0.310
-0.310
-0.310
-0.320
-0.320
-0.320
-0.280
-0.160
-0.070
-0.020
0.000
0.040
0.020
0.030
0.030
-0.010
0.030
0.100
0.070
0.110
0.080
0.080
0.070
0.070
0.050
0.040
0.040
0.030
-0.070
-0.110
-0.150
-0.180
-0.130
-0.190
-0.180
-0.170
-0.190
-0.160
-0.170
-0.180
-0.170
-0.220
-0.180
-0.220
-0.230
-0.240
-0.250
-0.260
-0.270
-0.280
-0.250
-0.330
-0.320
-0.310
-0.250
-0.270
-0.300
-0.220
-0.280
-0.270
-0.260
-0.290
-0.280
-0.250
-0.280
-0.230
-0.220
-0.250
-0.220
-0.190
-0.180
-0.270
-0.180
-0.130
-0.100
-0.110
-0.100
-0.080
-0.090
-0.040
-0.050
-0.080
-0.070
-0.030
-0.020
-0.030
-0.010
-0.020
-0.050
-0.010
0.000
-0.010
0.030
0.040
0.040
0.010
0.030
0.010
0.000
0.000
0.000
0.010
-0.010
-0.030
-0.010
-0.120
-0.260
-0.270
-0.360
-0.360
-0.340
-0.350
-0.410
-0.390
-0.410
-0.410
-0.410
-0.420
-0.420
-0.420
-0.380
-0.370
-0.350
-0.340
-0.340
-0.350
-0.350
-0.310
-0.230
-0.150
0.020
-0.080
-0.110
-0.140
-0.140
-0.150
-0.140
-0.130
-0.120
-0.140
-0.110
-0.100
-0.090
-0.030
0.000
-0.030
0.020
-0.010
0.000
0.010
0.000
-0.010
-0.020
-0.030
-0.060
-0.050
-0.040
-0.070
-0.040
-0.070
-0.080
-0.090
-0.100
-0.090
-0.070
-0.130
-0.140
-0.130
-0.160
-0.170
-0.180
-0.170
-0.200
-0.190
-0.190
-0.170
-0.230
-0.240
-0.250
-0.260
-0.300
-0.310
-0.300
-0.270
-0.290
-0.280
-0.540
-0.350
-0.320
-0.310
-0.310
-0.290
-0.340
-0.330
-0.330
-0.300
-0.340
-0.310
-0.290
-0.350
-0.300
-0.300
-0.300
-0.280
-0.110
-0.060
0.000
0.040
0.040
0.020
0.030
0.050
0.070
0.100
0.100
0.100
0.060
0.040
0.040
0.050
0.050
0.020
0.060
-0.010
-0.100
-0.110
-0.150
-0.160
-0.180
-0.170
-0.200
-0.190
-0.170
-0.180
-0.170
-0.180
-0.200
-0.190
-0.230
-0.220
-0.250
-0.240
-0.270
-0.260
-0.270
-0.370
-0.480
-0.330
-0.320
-0.310
-0.280
-0.240
-0.230
-0.270
-0.190
-0.250
-0.260
-0.250
-0.260
-0.250
-0.220
-0.210
-0.240
-0.230
-0.200
-0.190
-0.180
-0.170
-0.160
-0.150
-0.100
-0.120
-0.110
-0.100
-0.090
-0.080
-0.070
-0.060
-0.060
-0.070
-0.040
-0.030
-0.050
0.000
-0.030
-0.030
-0.020
-0.010
-0.030
-0.020
-0.020
0.010
0.030
-0.010
0.000
0.000
0.020
0.010
0.010
0.010
-0.070
-0.140
-0.270
-0.300
-0.340
-0.400
-0.480
-0.420
-0.380
-0.390
-0.390
-0.390
-0.410
-0.390
-0.380
-0.360
-0.340
-0.350
-0.330
-0.340
-0.340
-0.300
-0.300
-0.250
-0.170
-0.150
-0.150
-0.160
-0.130
-0.110
-0.140
-0.130
-0.140
-0.130
-0.110
-0.120
-0.090
-0.140
-0.090
-0.010
-0.020
0.010
0.030
0.020
0.010
0.000
0.030
0.020
-0.010
0.000
-0.010
0.000
-0.050
-0.030
-0.060
-0.050
-0.030
-0.070
-0.080
-0.090
-0.100
-0.110
-0.140
-0.130
-0.180
-0.170
-0.180
-0.170
-0.170
-0.180
-0.250
-0.280
-0.250
-0.240
-0.230
-0.240
-0.210
-0.250
-0.230
-0.240
-0.240
-0.280
-0.290
-0.290
-0.320
-0.300
-0.310
-0.290
-0.270
-0.300
-0.350
-0.330
-0.340
-0.310
-0.290
-0.320
-0.320
-0.300
-0.280
-0.280
-0.100
-0.040
0.000
0.020
0.020
0.040
0.040
0.050
0.070
0.070
0.140
0.070
0.080
0.110
0.040
0.070
0.050
0.030
0.020
0.020
0.010
-0.060
-0.130
-0.180
-0.200
-0.190
-0.200
-0.180
-0.190
-0.200
-0.240
-0.210
-0.180
-0.170
-0.180
-0.170
-0.210
-0.220
-0.220
-0.250
-0.260
-0.270
-0.240
-0.320
-0.330
-0.300
-0.330
-0.320
-0.200
-0.280
-0.270
-0.260
-0.250
-0.260
-0.290
-0.230
-0.240
-0.210
-0.220
-0.190
-0.220
-0.190
-0.180
-0.150
-0.140
-0.160
-0.150
-0.120
-0.130
-0.120
-0.090
-0.100
-0.090
-0.080
-0.060
-0.090
-0.060
-0.030
-0.050
-0.020
-0.010
-0.010
-0.020
-0.020
0.010
-0.020
0.000
-0.040
-0.030
-0.010
-0.020
-0.020
0.000
-0.010
0.010
-0.030
-0.050
-0.160
-0.300
-0.340
-0.340
-0.360
-0.360
-0.340
-0.360
-0.390
-0.410
-0.430
-0.430
-0.410
-0.400
-0.380
-0.380
-0.350
-0.370
-0.370
-0.380
-0.340
-0.300
-0.260
-0.190
-0.180
-0.180
-0.160
-0.170
-0.150
-0.140
-0.170
-0.130
-0.120
-0.150
-0.120
-0.130
-0.100
-0.020
-0.020
-0.030
0.020
0.030
0.000
0.030
-0.020
-0.030
0.020
0.010
0.000
-0.030
-0.060
-0.030
-0.060
-0.030
-0.060
-0.090
-0.060
-0.090
-0.100
-0.150
-0.140
-0.150
-0.140
-0.150
-0.160
-0.170
-0.280
-0.230
-0.180
-0.190
-0.200
-0.210
-0.220
-0.230
-0.200
-0.240
-0.250
-0.260
-0.260
-0.270
-0.280
-0.310
-0.290
-0.320
-0.320
-0.280
-0.310
-0.340
-0.320
-0.300
-0.330
-0.310
-0.310
-0.310
-0.320
-0.320
-0.320
-0.300
-0.280
-0.120
-0.020
0.000
0.020
0.040
0.020
0.040
0.040
0.070
0.100
0.100
0.120
0.040
0.080
0.040
0.070
0.070
0.030
0.040
0.040
-0.010
-0.050
-0.130
-0.150
-0.160
-0.190
-0.210
-0.220
-0.190
-0.160
-0.200
-0.150
-0.180
-0.170
-0.180
-0.240
-0.300
-0.270
-0.240
-0.230
-0.240
-0.250
-0.280
-0.250
-0.280
-0.250
-0.220
-0.280
-0.220
-0.280
-0.220
-0.210
-0.250
-0.280
-0.270
-0.260
-0.230
-0.240
-0.190
-0.200
-0.210
-0.200
-0.150
-0.140
-0.150
-0.160
-0.130
-0.100
-0.090
-0.120
-0.070
-0.080
-0.080
-0.070
-0.060
-0.070
-0.060
-0.040
-0.030
-0.020
-0.020
-0.010
-0.020
0.000
-0.010
0.010
0.000
0.000
0.030
-0.010
0.020
0.000
0.000
0.010
0.010
0.030
-0.030
-0.070
-0.170
-0.270
-0.320
-0.360
-0.380
-0.400
-0.460
-0.400
-0.410
-0.410
-0.390
-0.410
-0.390
-0.360
-0.320
-0.340
-0.300
-0.330
-0.340
-0.310
-0.280
-0.200
-0.170
-0.140
-0.150
-0.140
-0.100
-0.130
-0.120
-0.120
-0.110
-0.100
-0.110
-0.060
-0.090
-0.090
-0.060
-0.020
0.010
0.040
0.010
0.040
0.010
0.020
-0.010
0.000
0.010
0.000
0.010
-0.020
-0.010
-0.040
-0.050
-0.040
-0.070
-0.060
-0.070
-0.080
-0.060
-0.100
-0.130
-0.140
-0.150
-0.160
-0.170
-0.180
-0.190
-0.180
-0.190
-0.220
-0.230
-0.280
-0.240
-0.200
-0.240
-0.250
-0.260
-0.260
-0.240
-0.250
-0.250
-0.290
-0.300
-0.300
-0.330
-0.280
-0.320
-0.340
-0.330
-0.330
-0.310
-0.310
-0.290
-0.320
-0.320
-0.320
-0.320
-0.280
-0.060
-0.040
0.020
0.000
0.000
0.040
0.040
0.040
0.050
0.100
0.070
0.070
0.070
0.060
0.060
0.040
0.070
0.050
0.040
0.040
-0.010
-0.070
-0.130
-0.170
-0.160
-0.190
-0.190
-0.180
-0.190
-0.190
-0.200
-0.170
-0.180
-0.190
-0.220
-0.210
-0.260
-0.270
-0.260
-0.270
-0.260
-0.270
-0.510
-0.380
-0.310
-0.300
-0.220
-0.230
-0.220
-0.210
-0.200
-0.210
-0.230
-0.220
-0.230
-0.220
-0.230
-0.260
-0.250
-0.200
-0.170
-0.180
-0.170
-0.200
-0.150
-0.140
-0.110
-0.140
-0.090
-0.100
-0.050
-0.090
-0.040
-0.050
-0.060
-0.030
-0.030
-0.060
-0.030
-0.020
-0.020
0.010
-0.020
-0.020
-0.030
0.010
0.000
0.020
0.030
-0.010
-0.010
0.020
0.020
0.020
0.010
-0.010
-0.030
-0.030
-0.150
-0.250
-0.360
-0.360
-0.380
-0.360
-0.360
-0.400
-0.390
-0.410
-0.430
-0.450
-0.540
-0.400
-0.380
-0.340
-0.330
-0.330
-0.340
-0.340
-0.300
-0.260
-0.230
-0.170
-0.150
-0.130
-0.140
-0.110
-0.160
-0.120
-0.130
-0.100
-0.150
-0.130
-0.160
-0.090
-0.030
-0.040
-0.030
0.000
-0.010
0.000
0.010
0.000
0.010
0.000
0.010
-0.020
-0.010
0.000
-0.050
-0.060
-0.030
-0.040
-0.050
-0.080
-0.070
-0.080
-0.090
-0.100
-0.110
-0.090
-0.150
-0.160
-0.170
-0.180
-0.190
-0.200
-0.190
-0.230
-0.260
-0.230
-0.260
-0.230
-0.240
-0.270
-0.390
-0.300
-0.290
-0.290
-0.280
-0.290
-0.290
-0.270
-0.280
-0.280
-0.290
-0.320
-0.300
-0.330
-0.280
-0.310
-0.310
-0.310
-0.350
-0.300
-0.300
-0.280
-0.070
-0.020
0.020
0.040
0.020
0.020
0.040
0.060
0.070
0.140
0.070
0.070
0.100
0.080
0.060
0.060
0.030
0.030
0.040
0.020
-0.010
-0.070
-0.130
-0.190
-0.140
-0.160
-0.190
-0.200
-0.200
-0.170
-0.180
-0.190
-0.200
-0.200
-0.220
-0.230
-0.260
-0.270
-0.260
-0.270
-0.260
-0.250
-0.270
-0.370
-0.360
-0.390
-0.360
-0.290
-0.300
-0.220
-0.230
-0.170
-0.230
-0.260
-0.250
-0.260
-0.230
-0.220
-0.230
-0.220
-0.210
-0.160
-0.190
-0.180
-0.170
-0.140
-0.130
-0.140
-0.140
-0.110
-0.100
-0.070
-0.040
-0.090
-0.060
-0.060
-0.030
-0.020
-0.010
-0.050
-0.040
0.010
-0.030
0.000
0.000
0.010
0.000
-0.020
0.010
0.010
0.010
0.020
-0.020
0.040
0.030
0.030
-0.010
-0.010
-0.240
-0.300
-0.320
-0.360
-0.380
-0.360
-0.480
-0.420
-0.410
-0.390
-0.390
-0.390
-0.370
-0.360
-0.360
-0.340
-0.330
-0.330
-0.350
-0.340
-0.290
-0.260
-0.210
-0.140
-0.180
-0.150
-0.160
-0.130
-0.110
-0.120
-0.130
-0.160
-0.120
-0.110
-0.120
-0.130
-0.080
-0.070
-0.030
0.010
0.020
0.010
0.000
0.010
0.000
0.010
0.020
-0.010
-0.020
-0.010
0.000
-0.050
-0.040
-0.050
-0.060
-0.070
-0.040
-0.080
-0.090
-0.070
-0.110
-0.120
-0.130
-0.160
-0.150
-0.190
-0.160
-0.190
-0.200
-0.210
-0.220
-0.230
-0.240
-0.270
-0.310
-0.320
-0.270
-0.260
-0.290
-0.240
-0.280
-0.290
-0.260
-0.300
-0.300
-0.310
-0.310
-0.290
-0.290
-0.330
-0.350
-0.340
-0.340
-0.310
-0.320
-0.350
-0.320
-0.300
-0.220
-0.050
-0.020
0.000
0.020
0.040
0.040
0.040
0.030
0.070
0.100
0.100
0.100
0.060
0.060
0.080
0.070
0.070
0.030
0.040
0.020
-0.050
-0.100
-0.130
-0.160
-0.160
-0.170
-0.180
-0.180
-0.190
-0.180
-0.190
-0.210
-0.230
-0.240
-0.210
-0.220
-0.230
-0.250
-0.410
-0.360
-0.280
-0.290
-0.280
-0.250
-0.280
-0.250
-0.310
-0.190
-0.220
-0.230
-0.290
-0.240
-0.250
-0.240
-0.270
-0.240
-0.230
-0.240
-0.210
-0.200
-0.210
-0.200
-0.190
-0.180
-0.130
-0.160
-0.110
-0.140
-0.110
-0.100
-0.090
-0.080
-0.110
-0.070
-0.040
-0.050
-0.040
-0.060
-0.030
-0.040
-0.020
-0.030
0.000
0.000
-0.050
0.010
-0.020
-0.020
0.010
-0.030
-0.020
0.020
0.000
-0.030
-0.010
-0.010
-0.030
-0.010
-0.180
-0.250
-0.340
-0.400
-0.420
-0.380
-0.380
-0.370
-0.390
-0.390
-0.410
-0.410
-0.380
-0.360
-0.340
-0.350
-0.370
-0.330
-0.360
-0.340
-0.300
-0.260
-0.210
-0.180
-0.150
-0.140
-0.120
-0.150
-0.140
-0.150
-0.130
-0.140
-0.110
-0.140
-0.090
-0.100
-0.120
-0.070
-0.050
0.000
-0.030
0.020
0.010
-0.020
0.010
0.000
0.010
0.020
-0.030
0.000
-0.030
-0.040
-0.030
-0.040
-0.050
-0.080
-0.070
-0.050
-0.090
-0.120
-0.130
-0.140
-0.170
-0.160
-0.170
-0.180
-0.380
-0.260
-0.210
-0.200
-0.210
-0.220
-0.220
-0.200
-0.210
-0.250
-0.260
-0.260
-0.270
-0.280
-0.280
-0.290
-0.300
-0.320
-0.310
-0.310
-0.320
-0.290
-0.350
-0.330
-0.350
-0.310
-0.310
-0.310
-0.350
-0.320
-0.300
-0.300
-0.200
-0.060
-0.020
0.040
0.040
0.040
0.020
0.050
0.050
0.100
0.100
0.070
0.080
0.080
0.080
0.070
0.030
0.030
0.020
0.020
0.010
-0.030
-0.090
-0.150
-0.160
-0.150
-0.250
-0.220
-0.210
-0.180
-0.160
-0.150
-0.180
-0.170
-0.160
-0.180
-0.200
-0.230
-0.260
-0.250
-0.260
-0.250
-0.240
-0.290
-0.280
-0.250
-0.310
-0.280
-0.240
-0.300
-0.290
-0.280
-0.200
-0.240
-0.270
-0.260
-0.250
-0.260
-0.250
-0.240
-0.190
-0.180
-0.190
-0.180
-0.150
-0.100
-0.150
-0.120
-0.110
-0.100
-0.090
-0.090
-0.060
-0.050
-0.020
-0.050
-0.070
-0.060
-0.050
-0.020
-0.040
-0.030
-0.030
-0.040
-0.050
-0.030
0.020
-0.190
-0.050
-0.010
0.010
0.020
0.040
0.040
0.030
0.050
-0.010
-0.030
-0.200
-0.260
-0.300
-0.340
-0.360
-0.380
-0.360
-0.370
-0.410
-0.390
-0.410
-0.430
-0.400
-0.380
-0.380
-0.350
-0.350
-0.330
-0.360
-0.310
-0.320
-0.260
-0.190
-0.140
-0.150
-0.160
-0.120
-0.130
-0.140
-0.120
-0.130
-0.120
-0.130
-0.120
-0.120
-0.130
-0.080
-0.020
-0.030
0.020
-0.010
-0.040
-0.010
0.000
0.010
0.020
0.010
-0.020
-0.050
-0.080
-0.050
-0.040
-0.050
-0.040
-0.070
-0.060
-0.020
-0.080
-0.060
-0.100
-0.110
-0.140
-0.150
-0.140
-0.170
-0.200
-0.190
-0.180
-0.190
-0.220
-0.220
-0.210
-0.240
-0.250
-0.240
-0.270
-0.270
-0.280
-0.270
-0.290
-0.300
-0.310
-0.310
-0.320
-0.330
-0.330
-0.290
-0.320
-0.330
-0.330
-0.330
-0.310
-0.310
-0.310
-0.350
-0.320
-0.320
-0.280
-0.200
-0.090
-0.020
0.000
0.020
0.040
0.020
-0.050
0.030
0.050
0.100
0.100
0.130
0.110
0.080
0.080
0.070
0.070
0.040
0.040
0.010
-0.050
-0.060
-0.150
-0.180
-0.150
-0.170
-0.180
-0.170
-0.190
-0.200
-0.190
-0.160
-0.200
-0.190
-0.210
-0.220
-0.230
-0.240
-0.230
-0.260
-0.270
-0.280
-0.270
-0.260
-0.270
-0.310
-0.230
-0.290
-0.230
-0.200
-0.260
-0.270
-0.260
-0.250
-0.280
-0.290
-0.260
-0.210
-0.220
-0.210
-0.220
-0.190
-0.200
-0.230
-0.180
-0.110
-0.140
-0.110
-0.110
-0.030
-0.070
-0.060
-0.050
-0.040
-0.060
-0.030
-0.060
-0.070
-0.050
-0.040
-0.030
-0.030
0.000
-0.020
-0.010
0.020
0.000
0.020
0.010
0.010
0.020
0.020
-0.020
0.030
0.010
0.010
0.010
-0.010
-0.200
-0.250
-0.320
-0.340
-0.320
-0.360
-0.390
-0.390
-0.430
-0.430
-0.430
-0.410
-0.400
-0.380
-0.360
-0.430
-0.370
-0.380
-0.340
-0.350
-0.300
-0.210
-0.170
-0.150
-0.130
-0.100
-0.110
-0.140
-0.120
-0.130
-0.120
-0.110
-0.130
-0.120
-0.130
-0.010
-0.090
-0.100
0.000
-0.010
0.020
0.020
0.030
0.020
0.010
0.020
-0.010
-0.040
-0.010
-0.040
-0.020
-0.030
-0.040
-0.050
-0.080
-0.090
-0.050
-0.090
-0.120
-0.130
-0.090
-0.130
-0.160
-0.190
-0.160
-0.190
-0.170
-0.200
-0.190
-0.200
-0.270
-0.300
-0.250
-0.260
-0.210
-0.270
-0.260
-0.270
-0.240
-0.300
-0.310
-0.290
-0.270
-0.300
-0.310
-0.330
-0.320
-0.340
-0.330
-0.330
-0.340
-0.360
-0.310
-0.320
-0.320
-0.320
-0.280
-0.180
-0.070
-0.020
0.020
0.040
0.020
0.000
0.050
0.050
0.070
0.120
0.100
0.120
0.080
0.060
0.040
0.050
0.050
0.100
0.040
0.010
-0.050
-0.060
-0.170
-0.220
-0.200
-0.190
-0.160
-0.200
-0.170
-0.160
-0.170
-0.190
-0.180
-0.190
-0.180
-0.200
-0.210
-0.240
-0.210
-0.250
-0.260
-0.270
-0.330
-0.320
-0.260
-0.300
-0.330
-0.300
-0.270
-0.280
-0.290
-0.260
-0.310
-0.260
-0.290
-0.230
-0.240
-0.210
-0.220
-0.210
-0.200
-0.170
-0.140
-0.180
-0.170
-0.160
-0.130
-0.140
-0.130
-0.140
-0.090
-0.080
-0.090
-0.070
-0.080
-0.090
-0.080
-0.040
-0.050
-0.020
0.060
-0.010
0.000
0.000
0.010
-0.010
-0.020
0.020
0.030
0.030
0.020
0.000
0.000
0.010
0.010
-0.010
0.010
-0.030
-0.200
-0.270
-0.320
-0.360
-0.380
-0.360
-0.370
-0.390
-0.410
-0.430
-0.430
-0.390
-0.380
-0.360
-0.380
-0.370
-0.370
-0.360
-0.360
-0.340
-0.350
-0.290
-0.210
-0.220
-0.150
-0.190
-0.150
-0.170
-0.180
-0.150
-0.160
-0.100
-0.110
-0.120
-0.130
-0.100
-0.020
0.000
-0.010
0.020
0.010
0.020
0.030
0.020
0.030
0.000
0.010
0.000
-0.010
0.000
-0.030
-0.040
-0.050
-0.060
-0.050
-0.060
-0.040
-0.080
-0.110
-0.100
-0.110
-0.120
-0.130
-0.160
-0.150
-0.180
-0.190
-0.200
-0.210
-0.200
-0.230
-0.260
-0.270
-0.250
-0.260
-0.270
-0.340
-0.300
-0.310
-0.300
-0.280
-0.310
-0.300
-0.300
-0.280
-0.310
-0.320
-0.320
-0.350
-0.300
-0.340
-0.310
-0.340
-0.290
-0.320
-0.320
-0.280
-0.140
-0.050
-0.020
0.020
0.020
0.040
0.040
0.030
0.050
0.050
0.100
0.100
0.070
0.060
0.040
0.060
0.070
0.030
0.050
0.000
0.000
-0.030
-0.100
-0.150
-0.160
-0.180
-0.190
-0.180
-0.220
-0.190
-0.160
-0.200
-0.240
-0.250
-0.220
-0.210
-0.200
-0.220
-0.250
-0.240
-0.250
-0.260
-0.250
-0.260
-0.290
-0.240
-0.300
-0.260
-0.250
-0.270
-0.280
-0.250
-0.240
-0.250
-0.240
-0.290
-0.240
-0.270
-0.220
-0.230
-0.240
-0.230
-0.200
-0.190
-0.160
-0.170
-0.140
-0.110
-0.140
-0.110
-0.140
-0.070
-0.100
-0.060
-0.070
-0.060
-0.070
-0.040
-0.040
-0.030
-0.040
-0.040
-0.030
-0.040
-0.020
-0.010
-0.030
-0.080
-0.040
0.030
0.010
0.030
0.040
0.020
0.000
0.010
0.010
-0.030
-0.030
-0.180
-0.300
-0.300
-0.340
-0.360
-0.360
-0.380
-0.390
-0.410
-0.410
-0.430
-0.410
-0.400
-0.360
-0.360
-0.370
-0.370
-0.350
-0.360
-0.340
-0.300
-0.280
-0.190
-0.190
-0.150
-0.140
-0.140
-0.130
-0.140
-0.150
-0.110
-0.120
-0.110
-0.120
-0.130
-0.130
-0.120
-0.070
-0.080
0.000
-0.010
-0.080
0.010
0.020
0.010
0.020
0.010
0.020
-0.010
0.000
-0.070
-0.040
0.000
-0.060
0.000
-0.060
-0.070
-0.050
-0.090
-0.100
-0.110
-0.140
-0.130
-0.160
-0.150
-0.180
-0.170
-0.180
-0.230
-0.220
-0.210
-0.230
-0.190
-0.250
-0.260
-0.270
-0.270
-0.280
-0.270
-0.300
-0.340
-0.290
-0.300
-0.320
-0.310
-0.310
-0.320
-0.320
-0.330
-0.330
-0.350
-0.340
-0.340
-0.340
-0.320
-0.320
-0.300
-0.300
-0.180
-0.150
-0.020
0.000
0.040
0.040
0.020
0.070
0.070
0.070
0.120
0.100
0.110
0.110
0.060
0.020
0.050
0.050
0.040
0.040
0.010
-0.070
-0.110
-0.150
-0.180
-0.150
-0.170
-0.180
-0.170
-0.190
-0.180
-0.190
-0.200
-0.170
-0.190
-0.180
-0.200
-0.230
-0.240
-0.250
-0.240
-0.290
-0.330
-0.340
-0.350
-0.340
-0.310
-0.360
-0.330
-0.300
-0.290
-0.280
-0.270
-0.360
-0.310
-0.280
-0.230
-0.220
-0.210
-0.220
-0.190
-0.180
-0.190
-0.160
-0.170
-0.140
-0.130
-0.140
-0.090
-0.080
-0.100
-0.110
-0.060
-0.070
-0.060
-0.070
-0.050
-0.040
-0.010
-0.020
-0.020
-0.030
-0.030
-0.040
-0.030
-0.010
0.000
-0.020
0.030
0.010
0.010
0.000
0.020
0.020
-0.010
0.010
-0.030
-0.010
-0.050
-0.230
-0.270
-0.360
-0.340
-0.400
-0.360
-0.370
-0.410
-0.390
-0.450
-0.450
-0.430
-0.420
-0.380
-0.340
-0.350
-0.350
-0.400
-0.420
-0.370
-0.320
-0.230
-0.170
-0.150
-0.160
-0.120
-0.130
-0.120
-0.120
-0.110
-0.120
-0.130
-0.090
-0.080
-0.110
-0.100
-0.040
-0.030
0.000
-0.010
0.000
-0.010
0.000
0.010
0.000
-0.010
-0.020
-0.030
-0.020
-0.050
-0.040
-0.070
-0.040
-0.050
-0.060
-0.070
-0.100
-0.090
-0.100
-0.110
-0.120
-0.130
-0.140
-0.170
-0.160
-0.170
-0.180
-0.210
-0.210
-0.240
-0.230
-0.240
-0.270
-0.280
-0.280
-0.250
-0.300
-0.370
-0.290
-0.280
-0.260
-0.260
-0.270
-0.310
-0.310
-0.290
-0.320
-0.300
-0.300
-0.330
-0.340
-0.340
-0.310
-0.320
-0.300
-0.320
-0.320
-0.280
-0.100
-0.040
0.020
0.020
0.040
0.020
0.030
0.070
0.030
0.100
0.100
0.100
0.110
0.060
0.060
0.090
0.050
0.060
0.040
0.050
-0.010
-0.040
-0.090
-0.140
-0.160
-0.170
-0.160
-0.180
-0.170
-0.160
-0.190
-0.180
-0.180
-0.220
-0.210
-0.220
-0.210
-0.220
-0.230
-0.220
-0.260
-0.270
-0.410
-0.340
-0.330
-0.320
-0.310
-0.210
-0.240
-0.190
-0.250
-0.230
-0.260
-0.210
-0.220
-0.250
-0.240
-0.210
-0.220
-0.210
-0.200
-0.190
-0.160
-0.170
-0.160
-0.170
-0.110
-0.140
-0.110
-0.120
-0.110
-0.080
-0.070
-0.060
-0.080
-0.070
-0.040
-0.070
-0.050
-0.020
-0.010
-0.030
0.000
-0.020
0.010
0.020
-0.020
-0.020
0.030
-0.010
0.020
-0.020
0.000
-0.010
0.010
-0.030
-0.050
-0.120
-0.250
-0.320
-0.320
-0.360
-0.360
-0.460
-0.380
-0.390
-0.410
-0.390
-0.430
-0.390
-0.380
-0.360
-0.320
-0.330
-0.350
-0.360
-0.380
-0.290
-0.280
-0.230
-0.190
-0.180
-0.150
-0.120
-0.150
-0.150
-0.140
-0.130
-0.140
-0.120
-0.150
-0.100
-0.130
-0.100
-0.070
-0.010
-0.030
0.020
0.010
0.020
0.030
0.000
0.010
0.020
0.010
0.020
-0.030
-0.020
-0.050
-0.040
-0.050
-0.060
-0.050
-0.080
-0.090
-0.150
-0.120
-0.110
-0.120
-0.130
-0.140
-0.160
-0.190
-0.240
-0.190
-0.180
-0.190
-0.200
-0.210
-0.220
-0.200
-0.230
-0.240
-0.250
-0.260
-0.280
-0.240
-0.280
-0.310
-0.290
-0.340
-0.300
-0.310
-0.330
-0.320
-0.340
-0.330
-0.350
-0.360
-0.310
-0.340
-0.350
-0.320
-0.320
-0.280
-0.300
-0.090
-0.020
-0.020
0.020
0.000
0.020
0.040
0.030
0.070
0.070
0.070
0.070
0.110
0.080
0.020
0.050
0.070
0.030
0.060
0.020
-0.010
-0.070
-0.130
-0.140
-0.180
-0.170
-0.200
-0.220
-0.210
-0.200
-0.180
-0.360
-0.270
-0.220
-0.210
-0.150
-0.200
-0.060
-0.150
-0.230
-0.240
-0.290
-0.260
-0.290
-0.310
-0.230
-0.290
-0.250
-0.290
-0.320
-0.250
-0.260
-0.290
-0.300
-0.270
-0.260
-0.270
-0.240
-0.190
-0.220
-0.190
-0.180
-0.190
-0.160
-0.170
-0.120
-0.150
-0.120
-0.110
-0.100
-0.090
-0.060
-0.060
-0.030
-0.060
-0.050
-0.080
-0.040
-0.030
-0.040
-0.040
-0.050
0.020
0.000
0.010
-0.030
-0.040
-0.040
-0.010
-0.010
0.020
0.000
0.000
0.010
0.010
-0.030
-0.050
-0.050
-0.140
-0.210
-0.270
-0.320
-0.340
-0.340
-0.360
-0.390
-0.390
-0.370
-0.410
-0.410
-0.420
-0.400
-0.360
-0.370
-0.350
-0.330
-0.360
-0.360
-0.350
-0.280
-0.230
-0.170
-0.180
-0.160
-0.160
-0.130
-0.140
-0.150
-0.110
-0.120
-0.110
-0.080
-0.110
-0.090
-0.060
-0.070
-0.010
0.000
0.010
0.020
0.010
0.040
0.010
0.000
0.010
-0.020
-0.010
-0.040
-0.030
-0.020
-0.050
-0.040
-0.050
-0.080
-0.090
-0.100
-0.090
-0.120
-0.080
-0.120
-0.230
-0.180
-0.170
-0.160
-0.170
-0.180
-0.160
-0.200
-0.210
-0.210
-0.190
-0.250
-0.240
-0.250
-0.230
-0.260
-0.290
-0.280
-0.280
-0.290
-0.300
-0.300
-0.310
-0.310
-0.320
-0.290
-0.300
-0.330
-0.300
-0.340
-0.340
-0.310
-0.320
-0.300
-0.280
-0.280
-0.090
-0.060
-0.020
-0.020
0.020
0.020
0.000
0.050
0.050
0.070
0.070
0.100
0.080
0.060
0.040
0.070
0.030
0.050
0.040
0.040
-0.010
-0.070
-0.150
-0.190
-0.180
-0.170
-0.190
-0.180
-0.190
-0.170
-0.200
-0.240
-0.250
-0.220
-0.190
-0.210
-0.220
-0.230
-0.220
-0.230
-0.240
-0.290
-0.280
-0.270
-0.240
-0.270
-0.260
-0.230
-0.290
-0.300
-0.290
-0.260
-0.230
-0.280
-0.250
-0.240
-0.250
-0.220
-0.210
-0.220
-0.190
-0.220
-0.170
-0.180
-0.190
-0.140
-0.150
-0.120
-0.130
-0.120
-0.120
-0.070
-0.080
-0.070
-0.060
-0.070
-0.030
-0.060
-0.050
-0.020
-0.040
0.010
-0.050
0.000
-0.010
-0.010
0.000
-0.040
-0.030
-0.030
-0.030
0.000
0.020
0.000
-0.070
-0.030
-0.010
0.010
-0.140
-0.230
-0.300
-0.300
-0.340
-0.340
-0.340
-0.370
-0.390
-0.390
-0.410
-0.370
-0.410
-0.380
-0.380
-0.340
-0.350
-0.330
-0.310
-0.360
-0.350
-0.260
-0.250
-0.170
-0.180
-0.160
-0.120
-0.130
-0.140
-0.120
-0.130
-0.140
-0.130
-0.120
-0.140
-0.110
-0.080
-0.070
-0.080
-0.020
-0.010
0.020
-0.030
0.000
0.010
0.000
0.010
0.000
-0.030
-0.020
-0.030
-0.020
-0.050
-0.040
-0.090
-0.100
-0.040
-0.080
-0.110
-0.120
-0.130
-0.140
-0.130
-0.160
-0.170
-0.160
-0.170
-0.200
-0.270
-0.250
-0.200
-0.210
-0.240
-0.230
-0.240
-0.240
-0.250
-0.260
-0.270
-0.290
-0.280
-0.310
-0.290
-0.300
-0.350
-0.310
-0.320
-0.340
-0.330
-0.330
-0.300
-0.310
-0.340
-0.310
-0.320
-0.320
-0.300
-0.280
-0.110
-0.050
0.020
-0.020
0.040
0.000
0.040
0.030
0.050
0.120
0.100
0.100
0.070
0.060
0.060
0.040
0.030
0.050
0.040
0.020
-0.030
-0.070
-0.170
-0.150
-0.160
-0.180
-0.170
-0.180
-0.210
-0.210
-0.220
-0.210
-0.200
-0.230
-0.220
-0.230
-0.300
-0.420
-0.280
-0.230
-0.260
-0.250
-0.240
-0.260
-0.270
-0.260
-0.250
-0.220
-0.230
-0.200
-0.250
-0.240
-0.290
-0.240
-0.250
-0.280
-0.250
-0.240
-0.210
-0.200
-0.190
-0.200
-0.170
-0.120
-0.170
-0.140
-0.110
-0.120
-0.160
-0.110
-0.120
-0.090
-0.060
-0.070
-0.060
-0.080
-0.070
-0.060
-0.050
-0.050
-0.020
-0.030
-0.010
0.000
-0.040
-0.010
0.020
0.020
0.020
0.010
0.010
0.000
0.000
0.020
-0.010
-0.030
-0.030
-0.050
-0.200
-0.280
-0.340
-0.360
-0.380
-0.360
-0.400
-0.490
-0.410
-0.410
-0.410
-0.390
-0.390
-0.380
-0.340
-0.320
-0.330
-0.350
-0.340
-0.360
-0.320
-0.240
-0.250
-0.170
-0.180
-0.180
-0.120
-0.130
-0.110
-0.160
-0.130
-0.120
-0.120
-0.090
-0.120
-0.110
-0.100
-0.040
-0.010
-0.040
0.020
0.010
0.000
0.010
0.020
0.010
0.000
0.010
0.000
-0.010
-0.040
-0.030
-0.020
-0.030
-0.040
-0.050
-0.070
-0.100
-0.060
-0.100
-0.080
-0.140
-0.150
-0.140
-0.170
-0.170
-0.200
-0.210
-0.220
-0.210
-0.220
-0.210
-0.430
-0.290
-0.270
-0.240
-0.250
-0.230
-0.240
-0.290
-0.280
-0.290
-0.290
-0.300
-0.320
-0.280
-0.280
-0.320
-0.360
-0.300
-0.330
-0.310
-0.310
-0.310
-0.320
-0.320
-0.300
-0.300
-0.280
-0.090
-0.020
0.020
0.060
0.040
0.020
0.030
0.050
0.100
0.120
0.120
0.070
0.110
0.060
0.040
0.070
0.050
0.030
0.060
0.040
-0.050
-0.070
-0.150
-0.160
-0.160
-0.190
-0.220
-0.220
-0.210
-0.180
-0.190
-0.190
-0.200
-0.190
-0.210
-0.220
-0.290
-0.250
-0.260
-0.230
-0.240
-0.250
-0.260
-0.270
-0.260
-0.300
-0.240
-0.280
-0.200
-0.260
-0.270
-0.240
-0.310
-0.280
-0.270
-0.280
-0.230
-0.220
-0.230
-0.240
-0.190
-0.180
-0.150
-0.160
-0.150
-0.140
-0.130
-0.120
-0.110
-0.060
-0.090
-0.040
-0.090
-0.070
-0.080
-0.050
-0.040
-0.060
-0.030
0.000
-0.020
-0.010
-0.020
-0.020
0.010
-0.030
0.000
0.000
0.010
0.010
0.000
0.020
0.020
0.000
0.030
-0.030
-0.030
-0.070
-0.240
-0.300
-0.320
-0.340
-0.440
-0.480
-0.380
-0.390
-0.390
-0.390
-0.410
-0.390
-0.420
-0.360
-0.340
-0.350
-0.330
-0.330
-0.340
-0.340
-0.320
-0.260
-0.210
-0.180
-0.150
-0.160
-0.140
-0.150
-0.120
-0.150
-0.150
-0.120
-0.150
-0.120
-0.110
-0.080
-0.120
-0.040
0.010
-0.040
0.010
0.000
0.010
0.040
0.010
0.020
-0.010
-0.040
-0.010
-0.020
-0.010
-0.060
-0.030
-0.040
-0.070
-0.030
-0.040
-0.100
-0.090
-0.100
-0.110
-0.140
-0.150
-0.160
-0.170
-0.180
-0.190
-0.200
-0.210
-0.220
-0.250
-0.320
-0.260
-0.250
-0.240
-0.250
-0.230
-0.280
-0.270
-0.280
-0.280
-0.290
-0.320
-0.300
-0.310
-0.310
-0.320
-0.290
-0.300
-0.330
-0.330
-0.310
-0.310
-0.310
-0.300
-0.300
-0.300
-0.300
-0.280
-0.080
-0.020
0.020
0.000
0.040
0.020
0.030
0.070
0.070
0.070
0.100
0.080
0.080
0.060
0.070
0.050
0.050
0.040
0.020
0.030
-0.050
-0.090
-0.130
-0.160
-0.170
-0.170
-0.160
-0.170
-0.180
-0.200
-0.240
-0.200
-0.190
-0.180
-0.210
-0.510
-0.270
-0.260
-0.210
-0.220
-0.270
-0.240
-0.290
-0.220
-0.300
-0.240
-0.280
-0.270
-0.300
-0.200
-0.260
-0.290
-0.280
-0.250
-0.260
-0.210
-0.240
-0.210
-0.200
-0.190
-0.180
-0.210
-0.160
-0.150
-0.140
-0.130
-0.140
-0.110
-0.100
-0.090
-0.110
-0.060
-0.050
-0.040
-0.070
-0.070
-0.040
-0.050
-0.020
-0.020
-0.030
0.000
-0.020
-0.030
-0.010
0.000
-0.020
0.010
0.030
-0.010
0.000
-0.020
0.000
-0.010
-0.010
-0.010
-0.030
-0.220
-0.250
-0.400
-0.440
-0.380
-0.360
-0.340
-0.370
-0.390
-0.390
-0.410
-0.410
-0.420
-0.380
-0.340
-0.340
-0.300
-0.350
-0.360
-0.340
-0.300
-0.260
-0.210
-0.190
-0.150
-0.140
-0.100
-0.110
-0.140
-0.140
-0.130
-0.120
-0.130
-0.120
-0.100
-0.110
-0.080
-0.070
0.010
0.000
-0.010
0.040
-0.010
0.000
0.010
0.000
0.010
0.000
0.010
-0.060
-0.050
-0.040
-0.050
-0.010
-0.070
-0.100
-0.110
-0.120
-0.090
-0.100
-0.300
-0.180
-0.150
-0.140
-0.150
-0.160
-0.140
-0.180
-0.160
-0.170
-0.200
-0.210
-0.240
-0.230
-0.240
-0.250
-0.250
-0.280
-0.270
-0.270
-0.280
-0.290
-0.290
-0.300
-0.310
-0.310
-0.320
-0.320
-0.330
-0.330
-0.350
-0.310
-0.310
-0.340
-0.320
-0.320
-0.300
-0.280
-0.220
-0.100
-0.040
0.020
0.020
0.020
0.020
0.050
0.070
0.070
0.070
0.070
0.050
0.080
0.060
0.060
0.050
0.030
0.040
0.000
0.010
-0.050
-0.110
-0.150
-0.140
-0.170
-0.190
-0.180
-0.280
-0.260
-0.160
-0.170
-0.180
-0.180
-0.190
-0.160
-0.170
-0.210
-0.240
-0.250
-0.240
-0.250
-0.260
-0.270
-0.310
-0.300
-0.240
-0.250
-0.240
-0.280
-0.220
-0.210
-0.270
-0.280
-0.250
-0.240
-0.230
-0.240
-0.210
-0.220
-0.210
-0.200
-0.190
-0.180
-0.170
-0.160
-0.130
-0.120
-0.140
-0.130
-0.120
-0.110
-0.080
-0.050
-0.080
-0.080
-0.070
-0.080
-0.030
-0.030
-0.020
0.010
-0.050
-0.060
-0.050
-0.010
0.000
0.020
-0.030
-0.090
-0.010
0.020
0.020
0.040
0.030
0.050
0.010
0.030
-0.030
-0.210
-0.230
-0.300
-0.340
-0.360
-0.360
-0.370
-0.390
-0.410
-0.410
-0.470
-0.410
-0.380
-0.380
-0.360
-0.370
-0.370
-0.340
-0.360
-0.320
-0.320
-0.250
-0.210
-0.150
-0.130
-0.160
-0.150
-0.130
-0.120
-0.130
-0.140
-0.120
-0.110
-0.120
-0.110
-0.100
-0.020
-0.080
0.020
-0.010
0.030
0.000
-0.010
0.000
0.010
0.000
0.010
0.000
-0.010
-0.020
-0.010
-0.120
-0.080
-0.020
-0.030
-0.040
-0.050
-0.090
-0.070
-0.110
-0.090
-0.130
-0.140
-0.150
-0.180
-0.160
-0.190
-0.180
-0.210
-0.220
-0.210
-0.220
-0.250
-0.240
-0.240
-0.220
-0.260
-0.270
-0.290
-0.280
-0.290
-0.310
-0.320
-0.270
-0.310
-0.310
-0.320
-0.340
-0.330
-0.350
-0.360
-0.340
-0.310
-0.320
-0.350
-0.300
-0.280
-0.160
-0.060
-0.020
0.000
0.060
0.020
0.020
0.000
0.010
0.050
0.070
0.120
0.100
0.000
0.020
0.040
0.070
0.070
0.030
0.060
0.000
-0.030
-0.050
-0.130
-0.140
-0.160
-0.170
-0.160
-0.200
-0.170
-0.200
-0.190
-0.190
-0.200
-0.170
-0.210
-0.220
-0.210
-0.230
-0.260
-0.270
-0.300
-0.290
-0.280
-0.250
-0.310
-0.270
-0.260
-0.320
-0.290
-0.210
-0.290
-0.300
-0.270
-0.260
-0.250
-0.240
-0.250
-0.220
-0.230
-0.220
-0.230
-0.220
-0.230
-0.160
-0.150
-0.140
-0.130
-0.120
-0.110
-0.160
-0.150
-0.100
-0.030
-0.050
-0.040
-0.030
-0.040
-0.060
-0.030
-0.040
-0.030
-0.010
0.000
-0.020
-0.010
-0.030
0.020
0.020
0.010
0.010
0.020
0.020
0.020
0.010
0.010
-0.010
-0.010
-0.030
-0.190
-0.300
-0.340
-0.360
-0.400
-0.360
-0.360
-0.390
-0.410
-0.410
-0.430
-0.410
-0.400
-0.380
-0.380
-0.370
-0.370
-0.370
-0.360
-0.360
-0.300
-0.260
-0.210
-0.180
-0.150
-0.160
-0.140
-0.200
-0.140
-0.170
-0.130
-0.200
-0.210
-0.160
-0.130
-0.080
-0.080
0.020
0.010
-0.040
0.050
0.040
0.030
0.020
0.010
0.020
0.010
0.000
0.010
-0.040
-0.050
-0.060
-0.030
-0.040
-0.070
-0.060
-0.070
-0.080
-0.060
-0.100
-0.080
-0.120
-0.130
-0.140
-0.170
-0.160
-0.170
-0.200
-0.210
-0.220
-0.210
-0.240
-0.240
-0.200
-0.260
-0.250
-0.280
-0.280
-0.290
-0.300
-0.280
-0.310
-0.320
-0.340
-0.330
-0.310
-0.340
-0.290
-0.370
-0.390
-0.340
-0.340
-0.310
-0.320
-0.300
-0.280
-0.280
-0.160
-0.070
0.000
0.000
0.040
0.060
0.020
0.040
0.030
0.120
0.100
0.120
0.100
0.080
0.060
0.060
0.020
0.070
0.030
0.020
0.020
-0.030
-0.120
-0.170
-0.170
-0.160
-0.190
-0.190
-0.200
-0.190
-0.140
-0.180
-0.190
-0.200
-0.220
-0.180
-0.210
-0.240
-0.230
-0.260
-0.270
-0.280
-0.290
-0.330
-0.320
-0.310
-0.420
-0.330
-0.280
-0.290
-0.230
-0.200
-0.210
-0.230
-0.300
-0.250
-0.240
-0.230
-0.220
-0.230
-0.200
-0.230
-0.180
-0.150
-0.180
-0.130
-0.140
-0.130
-0.120
-0.130
-0.100
-0.110
-0.110
-0.080
-0.070
-0.040
-0.070
-0.070
-0.040
-0.010
-0.020
-0.020
-0.030
0.000
0.000
0.010
-0.010
0.000
-0.020
0.010
-0.010
-0.020
0.000
0.000
-0.020
0.010
-0.010
-0.010
-0.010
-0.220
-0.270
-0.300
-0.400
-0.380
-0.380
-0.360
-0.380
-0.390
-0.410
-0.430
-0.370
-0.370
-0.360
-0.320
-0.360
-0.330
-0.330
-0.340
-0.310
-0.320
-0.260
-0.190
-0.170
-0.150
-0.190
-0.120
-0.150
-0.140
-0.100
-0.150
-0.140
-0.130
-0.160
-0.120
-0.130
-0.120
-0.070
-0.030
0.000
0.010
0.020
0.010
0.000
0.030
0.000
-0.030
-0.020
-0.030
-0.020
-0.030
-0.140
-0.070
-0.060
-0.050
-0.060
-0.040
-0.080
-0.090
-0.070
-0.110
-0.140
-0.130
-0.160
-0.170
-0.200
-0.170
-0.180
-0.190
-0.200
-0.220
-0.210
-0.220
-0.230
-0.240
-0.290
-0.270
-0.260
-0.270
-0.320
-0.280
-0.330
-0.290
-0.320
-0.310
-0.310
-0.320
-0.290
-0.330
-0.350
-0.300
-0.310
-0.310
-0.340
-0.320
-0.320
-0.300
-0.300
-0.140
-0.040
-0.040
-0.020
0.000
0.020
0.040
0.040
0.030
0.050
0.010
0.100
0.100
0.060
0.060
0.040
0.070
0.070
0.040
0.040
-0.010
-0.050
-0.090
-0.150
-0.160
-0.200
-0.170
-0.160
-0.190
-0.170
-0.180
-0.190
-0.180
-0.180
-0.220
-0.230
-0.220
-0.270
-0.240
-0.250
-0.280
-0.270
-0.300
-0.290
-0.260
-0.340
-0.310
-0.300
-0.270
-0.230
-0.270
-0.240
-0.290
-0.260
-0.250
-0.260
-0.290
-0.260
-0.230
-0.220
-0.230
-0.280
-0.230
-0.200
-0.150
-0.120
-0.130
-0.080
-0.110
-0.110
-0.060
-0.070
0.010
-0.070
-0.020
-0.060
-0.030
-0.020
-0.050
-0.050
-0.060
-0.010
-0.030
0.000
0.010
-0.030
-0.020
0.020
-0.010
0.010
-0.010
0.000
0.000
0.000
0.010
0.030
-0.010
-0.010
-0.050
-0.230
-0.270
-0.340
-0.360
-0.360
-0.340
-0.360
-0.410
-0.430
-0.430
-0.450
-0.430
-0.420
-0.400
-0.380
-0.330
-0.350
-0.420
-0.400
-0.360
-0.280
-0.230
-0.170
-0.150
-0.150
-0.140
-0.090
-0.130
-0.140
-0.150
-0.140
-0.120
-0.130
-0.120
-0.150
-0.120
-0.070
-0.010
-0.020
0.000
0.010
0.020
0.030
0.020
0.010
0.020
0.010
0.000
-0.010
0.000
-0.050
-0.040
-0.080
-0.070
-0.060
-0.090
-0.080
-0.060
-0.100
-0.110
-0.120
-0.130
-0.160
-0.150
-0.180
-0.230
-0.210
-0.220
-0.210
-0.220
-0.210
-0.430
-0.290
-0.260
-0.260
-0.220
-0.230
-0.270
-0.270
-0.280
-0.310
-0.310
-0.320
-0.300
-0.310
-0.320
-0.290
-0.330
-0.330
-0.330
-0.340
-0.310
-0.340
-0.350
-0.320
-0.320
-0.300
-0.280
-0.170
-0.060
0.000
0.020
0.040
0.020
0.040
0.030
0.050
0.100
0.100
0.100
0.110
0.110
0.080
0.030
0.070
0.030
0.060
0.040
-0.010
-0.070
-0.110
-0.140
-0.160
-0.150
-0.180
-0.240
-0.190
-0.180
-0.150
-0.150
-0.180
-0.190
-0.180
-0.200
-0.190
-0.230
-0.220
-0.250
-0.260
-0.250
-0.280
-0.360
-0.280
-0.320
-0.220
-0.320
-0.290
-0.320
-0.270
-0.280
-0.270
-0.300
-0.250
-0.240
-0.230
-0.210
-0.220
-0.210
-0.220
-0.190
-0.160
-0.160
-0.150
-0.140
-0.130
-0.100
-0.130
-0.120
-0.090
-0.100
-0.090
-0.070
-0.060
-0.030
-0.020
-0.030
-0.070
-0.040
-0.030
-0.030
-0.020
0.000
-0.010
-0.110
-0.040
-0.020
0.030
0.030
0.000
0.000
0.020
0.030
0.050
0.030
-0.010
-0.050
-0.210
-0.270
-0.300
-0.340
-0.360
-0.380
-0.380
-0.370
-0.410
-0.430
-0.430
-0.410
-0.400
-0.380
-0.360
-0.350
-0.350
-0.350
-0.360
-0.310
-0.280
-0.260
-0.190
-0.180
-0.150
-0.140
-0.160
-0.150
-0.120
-0.150
-0.130
-0.140
-0.130
-0.140
-0.110
-0.080
-0.060
-0.070
-0.010
0.000
0.030
0.000
-0.010
0.020
-0.030
-0.040
-0.010
-0.020
-0.010
0.000
-0.010
-0.020
-0.030
-0.040
-0.050
-0.060
-0.070
-0.080
-0.060
-0.070
-0.110
-0.140
-0.130
-0.160
-0.170
-0.180
-0.170
-0.180
-0.190
-0.200
-0.210
-0.220
-0.250
-0.250
-0.260
-0.250
-0.260
-0.280
-0.290
-0.320
-0.310
-0.290
-0.300
-0.300
-0.310
-0.330
-0.340
-0.340
-0.330
-0.330
-0.340
-0.310
-0.340
-0.320
-0.350
-0.350
-0.320
-0.300
-0.170
-0.040
0.000
-0.020
-0.040
0.000
0.040
0.040
0.070
0.070
0.120
0.120
0.100
0.080
0.080
0.060
0.050
0.050
0.060
0.020
0.010
-0.050
-0.110
-0.150
-0.180
-0.170
-0.210
-0.160
-0.170
-0.180
-0.200
-0.190
-0.200
-0.170
-0.210
-0.210
-0.240
-0.230
-0.240
-0.230
-0.300
-0.290
-0.260
-0.320
-0.260
-0.300
-0.290
-0.250
-0.310
-0.300
-0.270
-0.260
-0.270
-0.260
-0.270
-0.280
-0.230
-0.300
-0.250
-0.240
-0.190
-0.160
-0.170
-0.180
-0.210
-0.200
-0.170
-0.140
-0.110
-0.080
-0.070
-0.060
-0.060
-0.050
-0.060
-0.010
-0.080
-0.060
-0.030
0.000
-0.040
-0.010
-0.020
-0.020
0.010
0.010
0.000
0.020
-0.010
0.010
0.020
0.000
0.020
0.010
-0.010
0.010
-0.010
-0.050
-0.080
-0.230
-0.320
-0.360
-0.360
-0.380
-0.360
-0.380
-0.390
-0.430
-0.410
-0.410
-0.410
-0.400
-0.380
-0.380
-0.370
-0.370
-0.360
-0.400
-0.320
-0.470
-0.310
-0.230
-0.180
-0.190
-0.140
-0.130
-0.140
-0.120
-0.130
-0.140
-0.130
-0.140
-0.110
-0.090
-0.120
0.000
-0.050
-0.040
-0.010
0.000
0.010
0.020
0.030
0.040
0.010
-0.040
-0.010
-0.040
-0.030
-0.040
-0.030
-0.060
-0.050
-0.060
-0.070
-0.080
-0.090
-0.120
-0.110
-0.140
-0.130
-0.160
-0.170
-0.180
-0.190
-0.180
-0.210
-0.200
-0.250
-0.240
-0.240
-0.250
-0.240
-0.310
-0.300
-0.300
-0.290
-0.300
-0.280
-0.310
-0.320
-0.320
-0.310
-0.430
-0.340
-0.320
-0.330
-0.300
-0.310
-0.290
-0.290
-0.300
-0.320
-0.300
-0.280
-0.280
-0.080
-0.060
0.000
0.000
0.040
0.040
0.040
0.040
0.070
0.100
0.100
0.070
0.070
0.080
0.040
0.060
0.050
0.070
0.040
0.040
-0.010
-0.050
-0.130
-0.170
-0.160
-0.190
-0.210
-0.180
-0.190
-0.190
-0.200
-0.170
-0.200
-0.170
-0.220
-0.210
-0.240
-0.250
-0.240
-0.250
-0.260
-0.270
-0.390
-0.380
-0.330
-0.320
-0.330
-0.340
-0.390
-0.280
-0.270
-0.190
-0.270
-0.260
-0.230
-0.240
-0.210
-0.200
-0.190
-0.220
-0.210
-0.180
-0.190
-0.160
-0.130
-0.120
-0.130
-0.100
-0.110
-0.100
-0.050
-0.110
-0.060
-0.070
-0.060
-0.030
-0.070
-0.060
-0.030
-0.040
-0.020
-0.030
-0.020
-0.020
0.010
-0.030
0.000
0.000
0.050
0.010
0.020
0.040
-0.020
0.030
-0.010
0.010
-0.010
-0.030
-0.150
-0.250
-0.300
-0.320
-0.380
-0.360
-0.400
-0.400
-0.390
-0.430
-0.430
-0.450
-0.410
-0.440
-0.420
-0.360
-0.330
-0.350
-0.340
-0.340
-0.350
-0.280
-0.210
-0.190
-0.130
-0.160
-0.140
-0.130
-0.120
-0.120
-0.130
-0.120
-0.130
-0.130
-0.100
-0.110
-0.080
-0.070
-0.010
-0.020
0.010
0.020
0.010
0.000
0.030
-0.020
0.010
-0.020
-0.030
-0.040
-0.010
-0.020
-0.050
-0.040
-0.050
-0.030
-0.070
-0.100
-0.060
-0.120
-0.110
-0.120
-0.100
-0.140
-0.190
-0.200
-0.190
-0.200
-0.230
-0.240
-0.250
-0.250
-0.240
-0.250
-0.280
-0.290
-0.370
-0.320
-0.290
-0.280
-0.250
-0.290
-0.270
-0.300
-0.310
-0.280
-0.290
-0.320
-0.280
-0.300
-0.340
-0.340
-0.290
-0.320
-0.320
-0.320
-0.300
-0.300
-0.100
-0.040
0.020
0.020
0.040
0.040
0.020
0.060
0.070
0.100
0.100
0.100
0.070
0.060
0.060
0.040
0.070
0.030
0.040
0.040
-0.030
-0.070
-0.130
-0.130
-0.200
-0.180
-0.190
-0.180
-0.210
-0.260
-0.250
-0.210
-0.180
-0.180
-0.190
-0.210
-0.260
-0.290
-0.320
-0.270
-0.240
-0.250
-0.240
-0.270
-0.240
-0.270
-0.220
-0.300
-0.270
-0.210
-0.270
-0.260
-0.250
-0.260
-0.230
-0.240
-0.230
-0.240
-0.250
-0.220
-0.250
-0.180
-0.210
-0.140
-0.150
-0.120
-0.110
-0.140
-0.130
-0.120
-0.120
-0.090
-0.100
-0.090
-0.040
-0.070
-0.050
-0.080
-0.050
-0.020
-0.040
-0.030
-0.020
-0.020
-0.030
-0.010
0.020
0.000
-0.010
-0.010
0.020
0.000
0.000
0.030
-0.010
0.010
-0.010
-0.050
-0.170
-0.270
-0.320
-0.340
-0.340
-0.530
-0.420
-0.380
-0.390
-0.390
-0.450
-0.410
-0.370
-0.380
-0.340
-0.340
-0.330
-0.330
-0.380
-0.310
-0.340
-0.260
-0.250
-0.170
-0.180
-0.150
-0.140
-0.130
-0.150
-0.140
-0.150
-0.140
-0.130
-0.110
-0.120
-0.110
-0.120
-0.070
-0.010
-0.020
-0.010
0.000
0.010
0.020
0.030
0.020
0.010
-0.020
-0.010
-0.040
-0.010
-0.060
-0.030
-0.040
-0.070
-0.060
-0.070
-0.080
-0.090
-0.100
-0.110
-0.140
-0.170
-0.180
-0.190
-0.130
-0.170
-0.200
-0.230
-0.220
-0.240
-0.290
-0.260
-0.230
-0.210
-0.220
-0.250
-0.230
-0.220
-0.280
-0.280
-0.310
-0.290
-0.300
-0.280
-0.330
-0.320
-0.340
-0.330
-0.300
-0.330
-0.310
-0.310
-0.290
-0.350
-0.320
-0.300
-0.300
-0.290
-0.100
-0.020
0.020
0.040
0.020
0.040
0.040
0.030
0.070
0.100
0.120
0.070
0.080
0.080
0.060
0.050
0.070
0.030
0.040
0.000
-0.030
-0.060
-0.130
-0.140
-0.180
-0.150
-0.180
-0.180
-0.190
-0.200
-0.190
-0.240
-0.200
-0.190
-0.230
-0.170
-0.460
-0.280
-0.250
-0.220
-0.230
-0.230
-0.260
-0.270
-0.260
-0.250
-0.260
-0.280
-0.230
-0.220
-0.240
-0.250
-0.280
-0.250
-0.280
-0.210
-0.200
-0.230
-0.200
-0.210
-0.200
-0.170
-0.160
-0.150
-0.140
-0.130
-0.120
-0.110
-0.110
-0.120
-0.090
-0.080
-0.050
-0.040
-0.070
-0.070
-0.060
-0.010
-0.050
0.000
-0.010
-0.010
0.000
-0.010
0.010
-0.020
-0.020
-0.010
0.010
0.010
0.000
0.040
-0.020
-0.010
-0.010
-0.050
-0.010
-0.170
-0.270
-0.300
-0.340
-0.360
-0.380
-0.440
-0.420
-0.410
-0.410
-0.430
-0.390
-0.390
-0.360
-0.360
-0.340
-0.350
-0.350
-0.300
-0.340
-0.360
-0.260
-0.230
-0.170
-0.150
-0.150
-0.120
-0.150
-0.110
-0.120
-0.130
-0.120
-0.140
-0.090
-0.140
-0.090
-0.120
-0.070
0.010
-0.040
0.010
0.010
0.020
0.030
0.020
0.030
0.000
-0.030
-0.020
-0.030
-0.020
-0.040
-0.030
-0.060
-0.050
-0.060
-0.070
-0.050
-0.090
-0.100
-0.130
-0.160
-0.150
-0.160
-0.170
-0.180
-0.290
-0.220
-0.200
-0.160
-0.170
-0.210
-0.220
-0.250
-0.240
-0.240
-0.250
-0.260
-0.240
-0.270
-0.250
-0.310
-0.290
-0.270
-0.310
-0.310
-0.320
-0.320
-0.300
-0.330
-0.350
-0.310
-0.340
-0.310
-0.320
-0.300
-0.320
-0.300
-0.260
-0.080
0.000
0.020
0.040
0.020
0.040
0.040
0.030
0.070
0.100
0.100
0.070
0.060
0.060
0.060
0.050
0.050
0.030
0.040
0.000
-0.030
-0.070
-0.130
-0.140
-0.180
-0.190
-0.200
-0.200
-0.210
-0.200
-0.170
-0.210
-0.200
-0.170
-0.180
-0.200
-0.310
-0.300
-0.250
-0.230
-0.260
-0.250
-0.280
-0.250
-0.260
-0.300
-0.220
-0.280
-0.290
-0.260
-0.290
-0.240
-0.220
-0.290
-0.240
-0.250
-0.240
-0.250
-0.200
-0.210
-0.200
-0.190
-0.180
-0.150
-0.160
-0.150
-0.160
-0.120
-0.110
-0.100
-0.090
-0.080
-0.070
-0.060
-0.080
-0.030
-0.060
-0.030
-0.030
-0.040
-0.010
-0.010
-0.020
-0.030
-0.010
0.000
-0.020
0.010
0.010
0.010
0.000
-0.020
0.000
-0.030
-0.010
-0.030
-0.010
-0.030
-0.250
-0.460
-0.420
-0.380
-0.380
-0.340
-0.380
-0.370
-0.410
-0.430
-0.390
-0.370
-0.380
-0.360
-0.360
-0.330
-0.350
-0.330
-0.310
-0.310
-0.280
-0.220
-0.140
-0.180
-0.150
-0.140
-0.150
-0.090
-0.120
-0.130
-0.140
-0.140
-0.130
-0.120
-0.110
-0.100
-0.040
-0.030
-0.030
0.020
0.010
0.020
0.030
0.000
0.010
0.000
0.010
0.000
-0.010
-0.020
-0.030
-0.040
-0.050
-0.010
-0.060
-0.070
-0.100
-0.110
-0.140
-0.130
-0.140
-0.150
-0.160
-0.150
-0.160
-0.200
-0.210
-0.280
-0.210
-0.240
-0.210
-0.190
-0.230
-0.240
-0.210
-0.250
-0.260
-0.270
-0.270
-0.280
-0.260
-0.290
-0.270
-0.320
-0.310
-0.320
-0.340
-0.330
-0.330
-0.330
-0.340
-0.310
-0.340
-0.320
-0.320
-0.300
-0.300
-0.240
-0.100
0.000
0.020
0.020
0.020
0.020
0.040
0.050
0.070
0.100
0.100
0.100
0.080
0.080
0.040
0.050
0.070
0.030
0.040
0.020
-0.010
-0.120
-0.130
-0.160
-0.180
-0.190
-0.220
-0.220
-0.190
-0.200
-0.190
-0.190
-0.290
-0.300
-0.230
-0.200
-0.230
-0.200
-0.240
-0.250
-0.240
-0.250
-0.260
-0.250
-0.240
-0.270
-0.220
-0.320
-0.270
-0.190
-0.250
-0.260
-0.230
-0.280
-0.290
-0.260
-0.240
-0.190
-0.240
-0.190
-0.200
-0.190
-0.120
-0.150
-0.170
-0.140
-0.130
-0.120
-0.110
-0.080
-0.090
-0.080
-0.070
-0.070
-0.060
-0.050
-0.060
-0.070
-0.050
-0.040
-0.030
-0.010
-0.020
0.000
-0.070
-0.050
-0.020
-0.040
-0.010
0.030
0.040
0.020
0.000
-0.050
-0.010
0.010
-0.010
-0.010
-0.170
-0.270
-0.270
-0.360
-0.340
-0.360
-0.380
-0.370
-0.410
-0.390
-0.410
-0.390
-0.380
-0.360
-0.340
-0.350
-0.330
-0.350
-0.360
-0.340
-0.350
-0.260
-0.230
-0.180
-0.180
-0.190
-0.150
-0.130
-0.120
-0.150
-0.130
-0.120
-0.110
-0.100
-0.130
-0.140
-0.090
-0.130
-0.010
-0.020
0.010
0.020
-0.010
0.020
0.010
0.000
-0.010
-0.020
-0.030
-0.040
-0.030
-0.040
-0.050
-0.080
-0.090
-0.100
-0.070
-0.080
-0.110
-0.100
-0.250
-0.160
-0.150
-0.140
-0.120
-0.160
-0.170
-0.180
-0.210
-0.170
-0.180
-0.190
-0.230
-0.230
-0.240
-0.250
-0.230
-0.260
-0.270
-0.300
-0.310
-0.290
-0.300
-0.300
-0.310
-0.310
-0.340
-0.320
-0.300
-0.330
-0.340
-0.310
-0.290
-0.320
-0.320
-0.300
-0.280
-0.110
-0.080
0.000
0.040
0.040
0.040
0.040
0.020
0.050
0.070
0.120
0.070
0.070
0.080
0.060
0.080
0.050
0.050
0.030
0.020
-0.020
-0.030
-0.100
-0.150
-0.160
-0.160
-0.170
-0.200
-0.270
-0.210
-0.180
-0.180
-0.170
-0.180
-0.190
-0.210
-0.200
-0.220
-0.250
-0.260
-0.250
-0.260
-0.270
-0.260
-0.340
-0.330
-0.300
-0.290
-0.230
-0.290
-0.280
-0.270
-0.280
-0.270
-0.280
-0.270
-0.260
-0.250
-0.220
-0.250
-0.240
-0.210
-0.200
-0.170
-0.160
-0.150
-0.120
-0.130
-0.140
-0.110
-0.120
-0.090
-0.060
-0.070
-0.070
-0.060
-0.050
-0.060
-0.060
-0.030
-0.040
-0.020
-0.010
-0.020
-0.060
-0.030
-0.050
0.000
0.020
-0.090
-0.050
0.020
0.000
0.060
0.050
0.010
0.010
0.010
-0.030
-0.180
-0.230
-0.300
-0.340
-0.360
-0.360
-0.360
-0.390
-0.410
-0.390
-0.410
-0.410
-0.380
-0.400
-0.360
-0.350
-0.350
-0.330
-0.380
-0.340
-0.350
-0.260
-0.210
-0.150
-0.180
-0.160
-0.160
-0.150
-0.160
-0.130
-0.130
-0.100
-0.150
-0.120
-0.110
-0.120
-0.080
-0.040
-0.080
0.000
0.010
0.040
0.010
0.000
-0.030
0.000
-0.030
-0.020
-0.030
-0.040
-0.030
-0.020
-0.050
-0.100
-0.130
-0.080
-0.070
-0.050
-0.090
-0.100
-0.080
-0.090
-0.100
-0.110
-0.170
-0.160
-0.170
-0.180
-0.210
-0.220
-0.210
-0.240
-0.190
-0.230
-0.240
-0.250
-0.280
-0.280
-0.290
-0.300
-0.300
-0.310
-0.300
-0.320
-0.310
-0.330
-0.320
-0.320
-0.330
-0.300
-0.360
-0.340
-0.340
-0.310
-0.350
-0.320
-0.320
-0.280
-0.220
-0.060
0.000
0.020
-0.020
0.000
0.000
0.070
0.070
-0.070
0.050
0.050
0.080
0.060
0.060
0.070
0.050
0.070
0.040
0.020
-0.030
-0.070
-0.150
-0.190
-0.160
-0.170
-0.210
-0.180
-0.210
-0.200
-0.200
-0.210
-0.180
-0.170
-0.210
-0.230
-0.220
-0.210
-0.240
-0.250
-0.280
-0.270
-0.350
-0.340
-0.330
-0.300
-0.310
-0.320
-0.270
-0.280
-0.290
-0.260
-0.310
-0.260
-0.230
-0.240
-0.270
-0.240
-0.210
-0.220
-0.190
-0.160
-0.190
-0.200
-0.190
-0.160
-0.130
-0.120
-0.130
-0.100
-0.090
-0.130
-0.160
-0.090
-0.060
-0.050
-0.070
-0.020
-0.010
0.000
-0.040
-0.010
-0.020
0.000
0.010
-0.030
-0.020
0.020
-0.010
0.030
-0.010
0.000
0.000
0.000
0.030
-0.010
-0.010
-0.030
-0.220
-0.250
-0.360
-0.360
-0.380
-0.340
-0.360
-0.390
-0.410
-0.430
-0.430
-0.430
-0.420
-0.380
-0.360
-0.350
-0.370
-0.350
-0.360
-0.340
-0.300
-0.260
-0.210
-0.190
-0.200
-0.190
-0.190
-0.150
-0.140
-0.230
-0.150
-0.140
-0.070
-0.100
-0.100
-0.050
-0.010
0.000
0.010
0.000
0.010
0.000
0.030
0.020
0.010
0.000
0.010
-0.020
-0.050
-0.040
-0.030
-0.060
-0.030
-0.040
-0.020
-0.060
-0.090
-0.100
-0.090
-0.100
-0.130
-0.090
-0.150
-0.160
-0.150
-0.180
-0.170
-0.180
-0.190
-0.200
-0.220
-0.230
-0.240
-0.230
-0.260
-0.270
-0.250
-0.280
-0.290
-0.300
-0.300
-0.290
-0.310
-0.270
-0.330
-0.330
-0.360
-0.320
-0.330
-0.330
-0.300
-0.290
-0.310
-0.310
-0.320
-0.320
-0.280
-0.280
-0.140
-0.080
0.020
0.000
0.040
0.040
0.020
0.030
0.050
0.100
0.050
0.100
0.110
0.080
0.080
0.060
0.030
0.050
0.040
0.040
0.030
-0.050
-0.060
-0.150
-0.140
-0.170
-0.170
-0.180
-0.190
-0.190
-0.180
-0.170
-0.180
-0.220
-0.220
-0.230
-0.240
-0.250
-0.220
-0.230
-0.280
-0.290
-0.330
-0.270
-0.350
-0.250
-0.240
-0.250
-0.290
-0.230
-0.290
-0.240
-0.200
-0.240
-0.290
-0.220
-0.230
-0.220
-0.210
-0.200
-0.210
-0.180
-0.170
-0.160
-0.170
-0.160
-0.150
-0.120
-0.150
-0.090
-0.080
-0.110
-0.080
-0.070
-0.060
-0.060
-0.050
-0.040
-0.030
-0.030
0.000
-0.050
0.010
-0.040
-0.030
-0.030
0.000
-0.020
0.010
0.010
-0.050
-0.020
0.020
0.000
0.030
0.030
0.030
-0.030
-0.220
-0.310
-0.320
-0.320
-0.360
-0.340
-0.380
-0.370
-0.410
-0.430
-0.430
-0.410
-0.370
-0.380
-0.360
-0.340
-0.370
-0.350
-0.340
-0.310
-0.320
-0.260
-0.230
-0.170
-0.150
-0.140
-0.140
-0.130
-0.160
-0.120
-0.130
-0.120
-0.150
-0.130
-0.100
-0.110
-0.080
-0.040
-0.030
0.000
-0.030
0.060
0.010
0.000
0.040
-0.030
-0.060
-0.030
-0.010
-0.020
-0.010
-0.020
-0.030
-0.040
-0.050
-0.030
-0.040
-0.100
-0.110
-0.100
-0.130
-0.120
-0.130
-0.160
-0.150
-0.180
-0.190
-0.200
-0.180
-0.160
-0.200
-0.230
-0.220
-0.250
-0.260
-0.240
-0.270
-0.260
-0.270
-0.290
-0.300
-0.310
-0.290
-0.270
-0.300
-0.310
-0.310
-0.320
-0.320
-0.300
-0.330
-0.310
-0.340
-0.360
-0.350
-0.320
-0.300
-0.280
-0.180
-0.090
-0.020
0.040
0.040
0.020
0.060
0.050
0.070
0.100
0.070
0.120
0.100
0.080
0.060
0.040
0.050
0.030
0.040
0.000
-0.010
-0.030
-0.110
-0.110
-0.180
-0.180
-0.190
-0.180
-0.160
-0.190
-0.180
-0.190
-0.210
-0.160
-0.220
-0.210
-0.240
-0.250
-0.240
-0.250
-0.250
-0.300
-0.270
-0.280
-0.340
-0.350
-0.340
-0.310
-0.250
-0.270
-0.230
-0.350
-0.280
-0.310
-0.260
-0.270
-0.230
-0.220
-0.250
-0.200
-0.190
-0.200
-0.170
-0.160
-0.180
-0.150
-0.140
-0.130
-0.100
-0.130
-0.100
-0.110
-0.120
-0.090
-0.090
-0.060
-0.050
-0.040
-0.040
-0.070
-0.020
-0.020
-0.010
0.000
-0.020
0.010
-0.030
0.040
0.000
0.030
0.010
0.020
0.000
0.000
-0.020
0.010
0.030
-0.030
-0.050
0.030
-0.220
-0.300
-0.340
-0.320
-0.390
-0.430
-0.430
-0.430
-0.410
-0.410
-0.390
-0.400
-0.360
-0.340
-0.350
-0.330
-0.360
-0.340
-0.320
-0.300
-0.250
-0.210
-0.200
-0.180
-0.160
-0.130
-0.130
-0.140
-0.170
-0.140
-0.120
-0.150
-0.100
-0.150
-0.140
-0.040
-0.020
0.010
0.000
0.010
0.000
0.010
0.020
-0.010
0.000
-0.010
-0.020
-0.030
-0.060
-0.050
-0.040
-0.050
-0.140
-0.090
-0.060
-0.070
-0.080
-0.090
-0.120
-0.080
-0.120
-0.100
-0.160
-0.150
-0.160
-0.190
-0.180
-0.210
-0.200
-0.230
-0.240
-0.240
-0.250
-0.240
-0.270
-0.260
-0.280
-0.290
-0.300
-0.280
-0.310
-0.340
-0.300
-0.330
-0.330
-0.320
-0.320
-0.330
-0.300
-0.330
-0.310
-0.340
-0.310
-0.320
-0.320
-0.280
-0.300
-0.140
-0.070
-0.010
0.050
0.030
-0.010
-0.010
0.030
0.030
0.050
0.120
0.070
0.040
0.020
0.060
0.070
0.070
0.080
0.060
0.040
0.050
-0.050
-0.090
-0.140
-0.160
-0.130
-0.160
-0.180
-0.190
-0.160
-0.160
-0.190
-0.180
-0.190
-0.210
-0.200
-0.240
-0.210
-0.260
-0.250
-0.240
-0.250
-0.260
-0.320
-0.260
-0.300
-0.290
-0.230
-0.310
-0.260
-0.270
-0.260
-0.270
-0.280
-0.270
-0.260
-0.270
-0.260
-0.230
-0.220
-0.250
-0.200
-0.190
-0.180
-0.250
-0.200
-0.130
-0.160
-0.110
-0.030
-0.090
-0.090
-0.060
-0.050
-0.060
-0.070
-0.010
-0.020
-0.010
-0.010
0.000
-0.030
-0.030
-0.020
0.010
0.030
0.020
0.000
0.020
0.010
-0.010
0.040
0.000
0.000
0.020
0.030
0.010
-0.010
-0.070
-0.260
-0.280
-0.330
-0.390
-0.390
-0.390
-0.370
-0.390
-0.390
-0.410
-0.460
-0.420
-0.420
-0.360
-0.390
-0.370
-0.340
-0.380
-0.360
-0.370
-0.300
-0.290
-0.300
-0.180
-0.190
-0.140
-0.130
-0.120
-0.110
-0.110
-0.120
-0.110
-0.120
-0.130
-0.130
-0.080
-0.070
-0.030
-0.040
0.010
0.000
0.010
0.000
0.010
0.020
0.010
0.020
-0.050
-0.060
-0.050
-0.040
-0.050
-0.040
-0.050
-0.080
-0.040
-0.100
-0.090
-0.100
-0.110
-0.120
-0.130
-0.160
-0.170
-0.180
-0.190
-0.200
-0.210
-0.190
-0.240
-0.250
-0.240
-0.250
-0.260
-0.260
-0.310
-0.360
-0.290
-0.270
-0.300
-0.290
-0.260
-0.300
-0.300
-0.310
-0.310
-0.320
-0.290
-0.300
-0.300
-0.330
-0.310
-0.340
-0.290
-0.320
-0.300
-0.280
-0.110
-0.030
0.010
0.010
0.030
0.030
0.010
0.050
0.050
0.070
0.120
0.110
0.110
0.060
0.060
0.050
0.050
0.060
0.040
0.020
0.030
-0.070
-0.110
-0.120
-0.180
-0.190
-0.230
-0.200
-0.190
-0.180
-0.180
-0.190
-0.200
-0.190
-0.300
-0.230
-0.220
-0.230
-0.220
-0.230
-0.260
-0.270
-0.300
-0.340
-0.260
-0.270
-0.310
-0.250
-0.290
-0.280
-0.220
-0.260
-0.270
-0.280
-0.250
-0.280
-0.250
-0.240
-0.250
-0.220
-0.210
-0.220
-0.210
-0.180
-0.190
-0.140
-0.100
-0.110
-0.120
-0.130
-0.100
-0.090
-0.100
-0.050
-0.090
-0.060
-0.090
-0.040
-0.040
-0.030
-0.020
-0.060
-0.010
-0.020
0.000
-0.030
-0.010
0.020
0.000
-0.010
-0.030
-0.030
-0.020
0.000
0.000
-0.150
-0.070
0.010
-0.050
-0.220
-0.330
-0.310
-0.330
-0.330
-0.350
-0.350
-0.390
-0.410
-0.410
-0.420
-0.380
-0.400
-0.360
-0.350
-0.370
-0.340
-0.400
-0.340
-0.350
-0.280
-0.250
-0.200
-0.150
-0.160
-0.160
-0.130
-0.120
-0.140
-0.150
-0.120
-0.130
-0.120
-0.120
-0.150
-0.080
-0.130
-0.050
-0.020
-0.010
0.000
0.030
0.030
0.020
0.010
0.020
0.010
0.000
-0.010
-0.060
-0.050
-0.080
-0.050
-0.040
-0.050
-0.080
-0.070
-0.100
-0.280
-0.120
-0.110
-0.090
-0.100
-0.160
-0.120
-0.160
-0.170
-0.180
-0.210
-0.200
-0.210
-0.220
-0.220
-0.250
-0.240
-0.250
-0.250
-0.260
-0.290
-0.290
-0.280
-0.290
-0.310
-0.320
-0.300
-0.310
-0.310
-0.320
-0.320
-0.330
-0.330
-0.330
-0.340
-0.340
-0.310
-0.310
-0.280
-0.280
-0.110
-0.050
0.030
0.030
0.050
0.050
0.050
0.030
0.100
0.100
0.110
0.080
0.080
0.020
0.050
0.010
0.040
0.060
0.020
-0.010
-0.140
-0.130
-0.140
-0.140
-0.110
-0.150
-0.160
-0.170
-0.170
-0.160
-0.170
-0.160
-0.180
-0.220
-0.210
-0.220
-0.210
-0.280
-0.250
-0.260
-0.300
-0.270
-0.350
-0.340
-0.330
-0.270
-0.260
-0.300
-0.290
-0.300
-0.270
-0.210
-0.270
-0.260
-0.270
-0.280
-0.230
-0.220
-0.230
-0.220
-0.190
-0.200
-0.150
-0.160
-0.150
-0.120
-0.150
-0.120
-0.090
-0.120
-0.100
-0.110
-0.080
-0.090
-0.060
-0.090
-0.110
-0.060
-0.030
-0.050
-0.020
-0.010
-0.030
-0.060
-0.100
-0.050
-0.030
0.040
0.000
0.050
0.030
0.010
0.040
-0.020
0.000
0.020
-0.030
-0.140
-0.260
-0.280
-0.330
-0.350
-0.350
-0.390
-0.370
-0.410
-0.410
-0.400
-0.440
-0.420
-0.380
-0.370
-0.370
-0.370
-0.360
-0.380
-0.310
-0.320
-0.320
-0.270
-0.200
-0.150
-0.160
-0.160
-0.150
-0.160
-0.120
-0.150
-0.120
-0.130
-0.130
-0.120
-0.130
-0.060
-0.090
-0.100
-0.090
-0.040
-0.030
0.000
0.030
0.020
0.010
-0.060
-0.050
-0.020
0.010
-0.020
0.020
-0.020
-0.030
-0.010
-0.020
-0.030
-0.070
-0.050
-0.090
-0.100
-0.080
-0.090
-0.150
-0.160
-0.170
-0.200
-0.170
-0.200
-0.190
-0.220
-0.220
-0.230
-0.220
-0.230
-0.280
-0.240
-0.250
-0.260
-0.290
-0.310
-0.280
-0.290
-0.290
-0.320
-0.300
-0.330
-0.310
-0.320
-0.320
-0.330
-0.330
-0.330
-0.340
-0.340
-0.290
-0.310
-0.280
-0.300
-0.110
-0.010
0.010
0.030
0.010
0.010
0.010
0.030
0.050
0.080
0.110
0.130
0.110
0.090
0.090
0.010
-0.040
0.020
0.040
0.030
0.010
-0.060
-0.110
-0.120
-0.150
-0.170
-0.160
-0.190
-0.150
-0.180
-0.150
-0.200
-0.180
-0.170
-0.180
-0.170
-0.250
-0.220
-0.230
-0.270
-0.260
-0.340
-0.330
-0.320
-0.280
-0.320
-0.310
-0.250
-0.310
-0.280
-0.250
-0.300
-0.230
-0.280
-0.270
-0.260
-0.270
-0.240
-0.210
-0.200
-0.210
-0.220
-0.170
-0.160
-0.150
-0.160
0.000
-0.100
-0.130
-0.080
-0.100
-0.070
-0.060
-0.110
-0.120
-0.120
-0.070
-0.040
-0.030
-0.030
-0.120
-0.090
-0.050
-0.020
0.020
-0.010
0.010
0.000
0.060
0.010
0.010
-0.010
0.040
0.020
0.000
0.000
-0.010
-0.070
-0.220
-0.280
-0.350
-0.370
-0.350
-0.350
-0.390
-0.390
-0.410
-0.410
-0.420
-0.400
-0.400
-0.400
-0.350
-0.370
-0.330
-0.360
-0.360
-0.320
-0.280
-0.250
-0.190
-0.180
-0.140
-0.160
-0.110
-0.140
-0.120
-0.150
-0.140
-0.110
-0.130
-0.100
-0.110
-0.100
-0.040
-0.010
0.020
0.040
-0.010
-0.040
-0.010
0.000
0.030
-0.020
0.010
-0.020
-0.010
-0.040
-0.050
-0.100
-0.070
-0.010
-0.020
-0.030
-0.040
-0.050
-0.060
-0.100
-0.110
-0.090
-0.130
-0.160
-0.170
-0.160
-0.170
-0.200
-0.190
-0.220
-0.230
-0.230
-0.240
-0.230
-0.260
-0.250
-0.250
-0.280
-0.270
-0.280
-0.280
-0.290
-0.290
-0.300
-0.330
-0.280
-0.320
-0.320
-0.290
-0.350
-0.300
-0.340
-0.340
-0.340
-0.310
-0.320
-0.320
-0.260
-0.090
-0.030
0.010
0.030
0.030
0.030
0.030
0.030
0.070
0.100
0.100
0.110
0.060
0.000
0.050
0.030
0.050
0.040
0.000
-0.030
-0.120
-0.090
-0.130
-0.140
-0.160
-0.150
-0.140
-0.170
-0.170
-0.140
-0.170
-0.140
-0.200
-0.170
-0.210
-0.200
-0.210
-0.220
-0.230
-0.250
-0.260
-0.250
-0.330
-0.270
-0.310
-0.270
-0.260
-0.280
-0.240
-0.300
-0.270
-0.260
-0.250
-0.260
-0.260
-0.250
-0.240
-0.230
-0.200
-0.230
-0.200
-0.190
-0.180
-0.170
-0.180
-0.140
-0.150
-0.120
-0.110
-0.060
-0.070
-0.080
-0.070
-0.080
-0.080
-0.110
-0.100
-0.070
-0.050
-0.040
-0.010
-0.030
0.000
0.000
-0.070
-0.060
0.000
0.010
0.010
0.010
0.020
0.040
0.040
0.030
0.030
0.010
0.010
0.000
-0.150
-0.250
-0.300
-0.340
-0.380
-0.340
-0.360
-0.380
-0.390
-0.410
-0.450
-0.410
-0.420
-0.380
-0.340
-0.330
-0.370
-0.330
-0.360
-0.310
-0.280
-0.240
-0.170
-0.150
-0.180
-0.120
-0.130
-0.130
-0.120
-0.130
-0.100
-0.140
-0.110
-0.120
-0.130
-0.060
-0.090
0.010
0.000
-0.010
0.010
0.000
0.030
0.000
0.010
0.000
-0.010
-0.030
-0.060
-0.070
-0.060
-0.070
-0.040
-0.070
-0.060
-0.150
-0.120
-0.110
-0.120
-0.080
-0.120
-0.100
-0.110
-0.120
-0.160
-0.170
-0.180
-0.190
-0.200
-0.210
-0.220
-0.220
-0.230
-0.210
-0.250
-0.280
-0.270
-0.270
-0.280
-0.310
-0.290
-0.320
-0.330
-0.310
-0.290
-0.320
-0.330
-0.330
-0.340
-0.340
-0.310
-0.320
-0.350
-0.350
-0.360
-0.310
-0.310
-0.290
-0.100
-0.040
0.020
0.040
0.000
0.020
0.020
0.040
0.060
0.060
0.090
0.100
0.070
0.050
0.040
0.040
0.000
0.030
0.030
0.000
-0.020
-0.100
-0.150
-0.190
-0.180
-0.190
-0.320
-0.200
-0.190
-0.160
-0.140
-0.170
-0.160
-0.170
-0.180
-0.200
-0.190
-0.220
-0.250
-0.230
-0.260
-0.290
-0.280
-0.350
-0.250
-0.310
-0.300
-0.240
-0.300
-0.270
-0.280
-0.290
-0.220
-0.290
-0.260
-0.270
-0.240
-0.230
-0.200
-0.220
-0.170
-0.180
-0.170
-0.140
-0.170
-0.160
-0.130
-0.100
-0.130
-0.070
-0.080
-0.070
-0.040
-0.070
-0.040
-0.050
-0.030
-0.040
-0.010
-0.020
-0.020
-0.010
0.000
0.040
0.010
-0.050
-0.020
0.000
0.010
0.030
0.010
-0.080
-0.020
0.020
0.070
0.010
0.030
0.030
-0.160
-0.200
-0.260
-0.310
-0.350
-0.350
-0.350
-0.350
-0.370
-0.390
-0.400
-0.380
-0.380
-0.380
-0.350
-0.350
-0.340
-0.340
-0.330
-0.330
-0.310
-0.270
-0.200
-0.140
-0.140
-0.150
-0.140
-0.120
-0.110
-0.140
-0.130
-0.120
-0.130
-0.140
-0.100
-0.110
-0.080
-0.040
-0.050
-0.020
0.010
0.020
0.010
0.010
0.000
-0.010
0.000
-0.030
-0.040
-0.050
-0.080
-0.070
-0.060
-0.070
-0.070
-0.080
-0.090
-0.120
-0.150
-0.180
-0.150
-0.140
-0.150
-0.180
-0.170
-0.200
-0.160
-0.200
-0.210
-0.220
-0.230
-0.240
-0.250
-0.260
-0.240
-0.280
-0.280
-0.310
-0.300
-0.310
-0.310
-0.320
-0.350
-0.350
-0.340
-0.340
-0.350
-0.350
-0.380
-0.380
-0.370
-0.340
-0.340
-0.380
-0.330
-0.350
-0.330
-0.290
-0.100
-0.050
-0.010
-0.030
-0.030
0.000
0.000
0.020
0.040
0.070
0.070
0.080
0.030
-0.010
0.000
0.020
0.030
0.010
-0.150
-0.040
-0.050
-0.090
-0.130
-0.180
-0.150
-0.170
-0.180
-0.210
-0.180
-0.180
-0.210
-0.180
-0.170
-0.200
-0.220
-0.210
-0.220
-0.230
-0.260
-0.270
-0.240
-0.270
-0.300
-0.290
-0.250
-0.350
-0.250
-0.240
-0.260
-0.250
-0.280
-0.230
-0.250
-0.240
-0.250
-0.220
-0.230
-0.220
-0.210
-0.190
-0.180
-0.170
-0.120
-0.130
-0.120
-0.110
-0.100
-0.090
-0.100
-0.070
-0.040
-0.070
-0.060
0.010
-0.020
0.010
-0.010
-0.020
-0.030
0.000
0.020
0.010
0.040
0.020
0.050
-0.020
-0.020
0.050
0.070
0.100
0.060
0.040
0.070
0.070
0.070
0.070
0.040
0.060
-0.150
-0.230
-0.280
-0.300
-0.300
-0.320
-0.340
-0.340
-0.370
-0.350
-0.390
-0.370
-0.380
-0.340
-0.310
-0.310
-0.320
-0.320
-0.350
-0.310
-0.290
-0.230
-0.200
-0.150
-0.130
-0.110
-0.120
-0.130
-0.120
-0.130
-0.120
-0.090
-0.110
-0.100
-0.110
-0.120
-0.070
-0.090
-0.050
-0.020
-0.010
0.040
-0.010
-0.020
-0.030
-0.020
-0.020
-0.030
-0.040
-0.090
-0.160
-0.100
-0.070
-0.060
-0.040
-0.050
-0.070
-0.080
-0.120
-0.100
-0.110
-0.150
-0.160
-0.180
-0.210
-0.220
-0.210
-0.240
-0.200
-0.240
-0.250
-0.260
-0.270
-0.300
-0.290
-0.320
-0.300
-0.310
-0.320
-0.350
-0.340
-0.360
-0.390
-0.380
-0.330
-0.410
-0.370
-0.380
-0.380
-0.390
-0.390
-0.370
-0.370
-0.400
-0.380
-0.380
-0.340
-0.360
-0.320
-0.130
-0.070
-0.050
-0.010
-0.050
-0.050
-0.050
-0.030
0.020
0.070
0.050
0.070
0.030
0.010
0.000
-0.080
-0.010
0.010
-0.040
-0.050
-0.090
-0.190
-0.180
-0.220
-0.190
-0.220
-0.190
-0.200
-0.190
-0.180
-0.210
-0.180
-0.210
-0.230
-0.190
-0.270
-0.260
-0.250
-0.280
-0.270
-0.300
-0.330
-0.320
-0.330
-0.270
-0.290
-0.270
-0.280
-0.310
-0.210
-0.260
-0.250
-0.240
-0.230
-0.260
-0.220
-0.210
-0.180
-0.190
-0.160
-0.140
-0.130
-0.120
-0.130
-0.100
-0.090
-0.080
-0.040
-0.050
-0.080
-0.090
-0.040
-0.050
0.020
-0.020
0.010
-0.080
-0.030
0.000
0.050
0.070
0.060
0.090
0.070
0.080
0.050
0.070
0.100
0.100
0.110
0.070
0.110
0.100
0.080
0.060
0.060
0.040
-0.140
-0.120
-0.270
-0.250
-0.290
-0.290
-0.300
-0.320
-0.320
-0.360
-0.370
-0.350
-0.370
-0.340
-0.280
-0.300
-0.290
-0.280
-0.320
-0.310
-0.290
-0.210
-0.160
-0.130
-0.100
-0.140
-0.100
-0.070
-0.100
-0.130
-0.120
-0.130
-0.120
-0.110
-0.080
-0.110
-0.010
-0.090
-0.120
-0.040
0.020
0.030
0.040
0.050
0.040
0.020
0.030
-0.020
0.010
-0.030
-0.040
-0.030
-0.050
-0.030
-0.070
-0.050
-0.100
-0.110
-0.120
-0.150
-0.120
-0.130
-0.190
-0.180
-0.210
-0.210
-0.240
-0.230
-0.260
-0.270
-0.280
-0.290
-0.300
-0.310
-0.320
-0.330
-0.340
-0.370
-0.340
-0.350
-0.370
-0.380
-0.370
-0.400
-0.400
-0.410
-0.390
-0.370
-0.410
-0.450
-0.410
-0.420
-0.420
-0.400
-0.430
-0.450
-0.400
-0.390
-0.330
-0.160
-0.310
-0.160
-0.060
-0.040
-0.040
-0.010
-0.030
0.020
-0.010
0.070
0.030
0.030
-0.010
-0.030
-0.020
0.000
-0.030
-0.040
-0.060
-0.090
-0.120
-0.210
-0.220
-0.230
-0.180
-0.230
-0.220
-0.210
-0.220
-0.210
-0.200
-0.230
-0.200
-0.240
-0.250
-0.260
-0.270
-0.270
-0.280
-0.270
-0.300
-0.330
-0.340
-0.330
-0.340
-0.250
-0.290
-0.230
-0.290
-0.270
-0.280
-0.250
-0.290
-0.220
-0.250
-0.230
-0.180
-0.190
-0.180
-0.180
-0.190
-0.160
-0.130
-0.050
-0.040
-0.030
-0.060
-0.030
-0.020
-0.030
-0.020
0.010
0.000
0.010
0.000
0.030
0.060
0.030
0.080
0.070
0.030
0.060
0.050
0.050
0.060
0.090
0.070
0.120
0.120
0.090
0.090
0.090
0.100
0.080
0.080
0.060
-0.130
-0.180
-0.250
-0.230
-0.250
-0.270
-0.280
-0.300
-0.320
-0.320
-0.340
-0.330
-0.310
-0.290
-0.300
-0.320
-0.270
-0.270
-0.280
-0.270
-0.330
-0.230
-0.160
-0.080
-0.080
-0.070
-0.060
-0.050
-0.060
-0.050
-0.060
-0.070
-0.080
-0.070
-0.080
-0.050
0.030
0.020
0.000
0.050
0.060
0.050
0.030
0.040
0.030
0.020
0.040
-0.010
0.020
-0.040
-0.030
-0.060
-0.050
0.000
-0.060
-0.070
-0.090
-0.100
-0.110
-0.150
-0.140
-0.150
-0.130
-0.200
-0.190
-0.220
-0.230
-0.250
-0.280
-0.290
-0.280
-0.290
-0.280
-0.290
-0.300
-0.310
-0.400
-0.390
-0.360
-0.350
-0.360
-0.390
-0.370
-0.380
-0.390
-0.400
-0.370
-0.450
-0.380
-0.390
-0.420
-0.380
-0.400
-0.440
-0.410
-0.410
-0.390
-0.380
-0.320
-0.170
-0.090
-0.070
-0.070
-0.070
-0.070
-0.070
-0.050
0.010
0.010
0.010
-0.010
-0.010
-0.010
-0.040
-0.060
-0.030
-0.050
-0.040
-0.050
-0.110
-0.210
-0.260
-0.230
-0.270
-0.220
-0.250
-0.390
-0.270
-0.260
-0.610
21.750
13.530
9.650
6.920
4.710
2.930
1.510
0.430
-0.510
-1.190
-1.680
-2.090
-2.290
-2.460
-2.540
-2.570
-2.540
-2.500
-2.490
-2.390
-2.330
-2.240
-2.200
-2.120
-1.990
-1.910
-1.850
-1.710
-1.620
-1.520
-1.420
-1.310
-1.230
-1.150
-1.060
-1.000
-0.970
-0.900
-0.830
-0.760
-0.730
-0.680
-0.630
-0.620
-0.590
-0.600
-0.550
-0.560
-0.540
-0.550
-0.580
-0.590
-0.580
-0.750
-0.630
-0.660
-0.670
-0.610
-0.590
-0.580
-0.520
-0.480
-0.430
-0.360
-0.280
-0.230
-0.230
-0.350
-0.250
-0.230
-0.160
-0.060
0.050
0.280
0.430
0.500
0.520
0.560
0.650
0.620
0.600
0.560
0.460
0.370
0.110
-0.070
-0.190
-0.310
-0.400
-0.460
-0.500
-0.570
-0.710
-0.820
-0.960
-0.990
-1.040
-1.050
-1.040
-1.130
-1.100
-1.050
-0.950
-0.840
-0.830
-0.580
-0.390
-0.190
0.030
0.230
0.400
0.540
0.650
0.710
0.730
0.720
0.670
0.600
0.550
0.460
0.370
0.300
0.230
0.170
0.110
0.020
-0.010
-0.010
-0.080
-0.110
-0.140
-0.190
-0.170
-0.210
-0.220
-0.200
-0.270
-0.280
-0.270
-0.250
-0.290
-0.320
-0.310
-0.320
-0.330
-0.340
-0.370
-0.320
-0.330
-0.390
-0.380
-0.400
-0.410
-0.400
-0.370
-0.360
-0.380
-0.390
-0.540
-0.450
-0.400
-0.430
-0.370
-0.390
-0.390
-0.250
-0.140
-0.130
-0.110
-0.090
-0.070
-0.060
-0.060
-0.100
-0.060
-0.060
-0.030
-0.030
-0.070
-0.040
-0.060
-0.050
-0.050
-0.080
-0.080
-0.110
-0.140
-0.170
-0.240
-0.250
-0.260
-0.250
-0.240
-0.260
-0.230
-0.240
-0.250
-0.240
-0.230
-0.220
-0.250
-0.240
-0.270
-0.280
-0.270
-0.320
-0.280
-0.270
-0.280
-0.380
-0.390
-0.330
-0.300
-0.260
-0.220
-0.280
-0.270
-0.260
-0.260
-0.250
-0.240
-0.180
-0.230
-0.240
-0.230
-0.190
-0.180
-0.170
-0.180
-0.140
-0.110
-0.100
-0.070
-0.100
-0.100
-0.050
-0.080
-0.050
-0.060
-0.030
-0.020
-0.030
-0.020
-0.010
-0.010
0.040
0.030
0.060
0.070
0.050
0.040
0.090
0.050
0.020
0.020
0.030
0.030
0.080
0.060
0.060
0.030
0.070
0.050
0.050
-0.130
-0.150
-0.190
-0.260
-0.260
-0.260
-0.250
-0.270
-0.270
-0.290
-0.330
-0.300
-0.320
-0.280
-0.250
-0.250
-0.280
-0.280
-0.290
-0.230
-0.230
-0.200
-0.170
-0.110
-0.120
-0.100
-0.070
-0.100
-0.130
-0.090
-0.120
-0.090
-0.080
-0.090
-0.100
-0.100
-0.070
-0.080
-0.090
0.030
0.000
0.030
0.010
0.020
0.010
-0.020
-0.050
-0.010
-0.020
-0.050
-0.210
-0.080
-0.070
-0.060
-0.060
-0.090
-0.100
-0.110
-0.110
-0.090
-0.130
-0.140
-0.170
-0.190
-0.220
-0.210
-0.220
-0.230
-0.220
-0.250
-0.260
-0.280
-0.270
-0.300
-0.310
-0.330
-0.300
-0.330
-0.340
-0.330
-0.340
-0.350
-0.370
-0.380
-0.370
-0.340
-0.380
-0.400
-0.430
-0.420
-0.420
-0.400
-0.410
-0.410
-0.430
-0.420
-0.370
-0.350
-0.250
-0.160
-0.080
-0.100
-0.080
-0.060
-0.100
-0.120
-0.080
-0.020
0.050
0.010
0.010
0.040
0.020
-0.020
-0.050
-0.030
-0.020
-0.040
-0.030
-0.150
-0.210
-0.240
-0.250
-0.210
-0.240
-0.230
-0.220
-0.230
-0.240
-0.230
-0.240
-0.280
-0.270
-0.260
-0.290
-0.280
-0.290
-0.300
-0.270
-0.300
-0.290
-0.290
-0.280
-0.290
-0.260
-0.230
-0.260
-0.310
-0.260
-0.310
-0.300
-0.300
-0.310
-0.320
-0.270
-0.280
-0.260
-0.290
-0.320
-0.250
-0.200
-0.160
-0.150
-0.140
-0.150
-0.120
-0.150
-0.100
-0.110
-0.100
-0.050
-0.080
0.010
-0.040
-0.050
-0.020
-0.010
0.000
0.000
0.030
0.060
0.040
0.030
0.020
0.000
0.070
0.030
0.060
0.040
0.070
0.070
0.020
0.040
0.060
0.040
0.010
0.010
-0.180
-0.250
-0.290
-0.290
-0.350
-0.310
-0.350
-0.310
-0.350
-0.400
-0.380
-0.340
-0.350
-0.290
-0.270
-0.280
-0.250
-0.330
-0.330
-0.300
-0.190
-0.160
-0.100
-0.060
-0.070
-0.060
-0.070
-0.050
-0.080
-0.090
-0.060
-0.110
-0.080
-0.090
-0.120
-0.110
-0.120
-0.070
-0.060
0.020
-0.010
0.020
0.030
0.010
0.020
0.030
0.020
-0.010
-0.040
-0.010
-0.010
-0.020
-0.030
-0.010
-0.020
-0.070
-0.080
-0.090
-0.070
-0.080
-0.120
-0.130
-0.170
-0.220
-0.250
-0.240
-0.210
-0.220
-0.230
-0.450
-0.290
-0.260
-0.270
-0.280
-0.290
-0.280
-0.280
-0.290
-0.300
-0.330
-0.360
-0.320
-0.330
-0.310
-0.360
-0.350
-0.320
-0.330
-0.360
-0.370
-0.340
-0.330
-0.380
-0.350
-0.390
-0.360
-0.340
-0.320
-0.180
-0.070
-0.020
-0.040
-0.040
-0.040
-0.050
-0.050
-0.030
-0.010
-0.010
0.040
0.000
-0.040
-0.030
-0.030
-0.010
-0.020
0.000
-0.030
-0.090
-0.150
-0.180
-0.220
-0.270
-0.260
-0.220
-0.230
-0.220
-0.190
-0.220
-0.230
-0.280
-0.310
-0.240
-0.230
-0.220
-0.210
-0.240
-0.270
-0.280
-0.250
-0.260
-0.220
-0.230
-0.260
-0.270
-0.240
-0.280
-0.350
-0.320
-0.310
-0.310
-0.280
-0.310
-0.280
-0.290
-0.300
-0.290
-0.220
-0.210
-0.170
-0.180
-0.190
-0.180
-0.130
-0.120
-0.130
-0.140
-0.130
-0.100
-0.050
-0.060
-0.050
0.020
-0.080
-0.030
-0.020
-0.010
-0.030
0.000
-0.030
0.000
-0.020
-0.030
-0.010
0.020
0.000
0.030
-0.010
-0.130
-0.020
0.050
0.030
0.070
0.050
0.060
0.040
0.000
-0.210
-0.230
-0.250
-0.320
-0.300
-0.320
-0.300
-0.340
-0.340
-0.350
-0.370
-0.370
-0.330
-0.340
-0.320
-0.310
-0.310
-0.310
-0.340
-0.330
-0.260
-0.210
-0.170
-0.130
-0.140
-0.170
-0.110
-0.140
-0.150
-0.130
-0.140
-0.090
-0.140
-0.110
-0.100
-0.090
-0.010
-0.090
-0.050
0.000
0.010
0.020
0.030
0.020
-0.010
-0.020
-0.010
-0.020
0.010
0.000
-0.010
-0.040
-0.090
-0.060
-0.030
-0.040
-0.050
-0.060
-0.100
-0.060
-0.070
-0.130
-0.140
-0.150
-0.160
-0.210
-0.220
-0.210
-0.220
-0.250
-0.240
-0.250
-0.230
-0.260
-0.290
-0.260
-0.270
-0.240
-0.280
-0.330
-0.340
-0.340
-0.350
-0.350
-0.340
-0.330
-0.350
-0.380
-0.340
-0.340
-0.390
-0.350
-0.320
-0.330
-0.360
-0.360
-0.330
-0.320
-0.110
-0.070
-0.010
0.010
0.030
0.030
-0.010
-0.010
0.020
0.000
0.020
0.000
0.030
0.030
0.030
-0.100
-0.060
0.010
-0.010
0.020
0.000
-0.100
-0.140
-0.170
-0.210
-0.200
-0.190
-0.200
-0.240
-0.190
-0.180
-0.190
-0.180
-0.200
-0.220
-0.180
-0.220
-0.270
-0.260
-0.230
-0.260
-0.250
-0.260
-0.340
-0.350
-0.320
-0.290
-0.300
-0.220
-0.300
-0.290
-0.280
-0.270
-0.220
-0.230
-0.260
-0.250
-0.240
-0.250
-0.240
-0.250
-0.200
-0.230
-0.200
-0.190
-0.180
-0.210
-0.180
-0.130
-0.160
-0.110
-0.140
-0.090
-0.090
-0.120
-0.150
-0.080
-0.040
-0.030
0.020
0.010
0.010
0.070
0.040
0.030
0.100
0.040
0.060
0.010
0.030
0.040
0.020
0.040
0.050
0.070
0.030
-0.030
-0.030
-0.150
-0.250
-0.320
-0.340
-0.360
-0.360
-0.360
-0.390
-0.370
-0.390
-0.430
-0.390
-0.400
-0.340
-0.340
-0.330
-0.330
-0.330
-0.360
-0.310
-0.350
-0.260
-0.230
-0.150
-0.150
-0.160
-0.170
-0.130
-0.080
-0.090
-0.150
-0.100
-0.130
-0.120
-0.150
-0.120
-0.160
-0.150
-0.120
-0.090
-0.050
-0.020
-0.240
-0.100
-0.030
-0.020
0.010
0.000
-0.010
-0.020
-0.070
-0.060
-0.070
-0.040
-0.020
-0.080
-0.070
-0.050
-0.040
-0.100
-0.080
-0.090
-0.100
-0.140
-0.120
-0.180
-0.170
-0.180
-0.200
-0.190
-0.260
-0.230
-0.280
-0.270
-0.290
-0.280
-0.250
-0.300
-0.280
-0.310
-0.320
-0.320
-0.310
-0.320
-0.340
-0.330
-0.310
-0.340
-0.340
-0.340
-0.350
-0.300
-0.330
-0.340
-0.340
-0.310
-0.310
-0.360
-0.320
-0.160
-0.070
-0.010
-0.010
0.050
-0.010
0.010
0.020
0.000
0.040
0.060
0.080
0.090
0.070
0.070
0.060
0.060
0.050
0.050
0.040
-0.040
-0.050
-0.160
-0.110
-0.150
-0.200
-0.170
-0.210
-0.180
-0.170
-0.200
-0.160
-0.190
-0.210
-0.170
-0.210
-0.180
-0.240
-0.230
-0.240
-0.250
-0.260
-0.250
-0.330
-0.250
-0.260
-0.230
-0.270
-0.230
-0.200
-0.240
-0.230
-0.240
-0.230
-0.240
-0.250
-0.200
-0.210
-0.260
-0.190
-0.160
-0.170
-0.190
-0.160
-0.150
-0.160
-0.150
-0.160
-0.130
-0.120
-0.110
-0.130
-0.250
-0.110
-0.040
0.050
0.020
-0.020
0.050
-0.010
0.020
-0.020
0.060
0.060
0.040
-0.020
0.010
0.030
0.020
0.040
0.110
0.010
0.010
0.010
0.010
0.000
0.000
0.000
-0.100
-0.250
-0.320
-0.360
-0.360
-0.360
-0.360
-0.400
-0.380
-0.400
-0.390
-0.410
-0.370
-0.340
-0.340
-0.340
-0.320
-0.300
-0.300
-0.330
-0.310
-0.260
-0.230
-0.160
-0.170
-0.150
-0.160
-0.130
-0.150
-0.160
-0.170
-0.140
-0.160
-0.130
-0.100
-0.110
-0.010
-0.060
-0.040
-0.050
-0.170
-0.010
0.000
0.030
0.040
-0.010
0.000
-0.030
-0.060
-0.010
-0.040
-0.030
-0.040
-0.050
-0.080
-0.070
-0.050
-0.080
-0.090
-0.070
-0.080
-0.120
-0.130
-0.160
-0.170
-0.180
-0.190
-0.200
-0.250
-0.190
-0.240
-0.230
-0.260
-0.270
-0.250
-0.260
-0.220
-0.250
-0.260
-0.240
-0.270
-0.280
-0.280
-0.260
-0.290
-0.270
-0.270
-0.280
-0.280
-0.230
-0.270
-0.250
-0.330
-0.330
-0.300
-0.330
-0.300
-0.270
-0.080
-0.020
-0.150
-0.040
0.000
0.020
0.040
0.030
0.090
0.070
0.090
0.090
0.080
0.080
0.060
0.090
0.050
0.070
0.060
0.040
0.010
-0.080
-0.110
-0.150
-0.160
-0.130
-0.170
-0.180
-0.170
-0.170
-0.140
-0.190
-0.170
-0.180
-0.170
-0.160
-0.220
-0.230
-0.230
-0.260
-0.210
-0.240
-0.250
-0.310
-0.300
-0.310
-0.230
-0.240
-0.230
-0.220
-0.210
-0.270
-0.240
-0.300
-0.310
-0.260
-0.270
-0.260
-0.290
-0.260
-0.230
-0.200
-0.190
-0.180
-0.190
-0.160
-0.130
-0.150
-0.100
-0.090
-0.060
-0.050
-0.070
-0.120
-0.150
-0.060
-0.060
-0.070
-0.040
-0.020
-0.050
0.000
0.000
0.060
-0.010
-0.020
0.020
0.010
0.010
0.030
0.020
0.000
0.020
0.010
0.030
0.010
-0.050
-0.050
-0.180
-0.240
-0.330
-0.340
-0.390
-0.370
-0.390
-0.390
-0.390
-0.410
-0.450
-0.410
-0.400
-0.400
-0.360
-0.390
-0.370
-0.370
-0.380
-0.360
-0.370
-0.300
-0.250
-0.160
-0.150
-0.180
-0.140
-0.130
-0.120
-0.140
-0.150
-0.140
-0.140
-0.130
-0.180
-0.150
-0.160
-0.130
-0.020
-0.030
-0.040
-0.050
-0.060
-0.140
-0.080
0.010
-0.020
-0.010
0.000
0.000
-0.030
-0.020
-0.050
-0.040
-0.070
-0.060
-0.070
-0.100
-0.130
-0.140
-0.110
-0.160
-0.170
-0.160
-0.190
-0.190
-0.180
-0.230
-0.220
-0.210
-0.220
-0.220
-0.230
-0.240
-0.270
-0.270
-0.280
-0.270
-0.280
-0.280
-0.270
-0.270
-0.280
-0.250
-0.260
-0.290
-0.270
-0.270
-0.310
-0.310
-0.290
-0.290
-0.320
-0.270
-0.280
-0.280
-0.280
-0.280
-0.070
-0.050
-0.030
0.010
-0.010
-0.010
0.010
0.030
0.070
0.050
0.050
0.060
0.020
0.020
0.000
0.030
0.050
0.010
0.040
0.020
-0.030
-0.080
-0.130
-0.150
-0.140
-0.150
-0.190
-0.180
-0.130
-0.170
-0.140
-0.150
-0.170
-0.160
-0.200
-0.160
-0.180
-0.220
-0.190
-0.240
-0.230
-0.260
-0.250
-0.260
-0.250
-0.310
-0.260
-0.300
-0.200
-0.320
-0.310
-0.280
-0.290
-0.300
-0.290
-0.240
-0.210
-0.240
-0.230
-0.220
-0.210
-0.200
-0.170
-0.200
-0.200
-0.150
-0.160
-0.150
-0.120
-0.090
-0.120
-0.120
-0.110
-0.120
-0.130
-0.090
-0.080
-0.070
-0.070
-0.080
-0.220
-0.130
-0.100
-0.060
-0.030
-0.010
-0.020
0.000
0.010
0.010
0.030
0.020
0.020
0.040
-0.010
0.030
0.030
-0.030
-0.220
-0.260
-0.330
-0.350
-0.390
-0.410
-0.370
-0.390
-0.390
-0.390
-0.450
-0.390
-0.380
-0.360
-0.310
-0.350
-0.300
-0.300
-0.310
-0.310
-0.300
-0.260
-0.210
-0.160
-0.150
-0.170
-0.180
-0.170
-0.170
-0.180
-0.190
-0.160
-0.140
-0.150
-0.120
-0.150
-0.150
-0.160
-0.170
-0.050
-0.110
-0.010
0.000
-0.010
-0.030
-0.060
-0.050
-0.020
-0.030
-0.020
-0.030
0.010
-0.030
-0.040
-0.020
-0.060
-0.040
-0.050
-0.090
-0.070
-0.130
-0.120
-0.140
-0.150
-0.140
-0.170
-0.200
-0.230
-0.200
-0.190
-0.210
-0.170
-0.210
-0.220
-0.250
-0.230
-0.260
-0.250
-0.250
-0.280
-0.270
-0.270
-0.300
-0.300
-0.310
-0.290
-0.320
-0.300
-0.310
-0.310
-0.310
-0.320
-0.340
-0.320
-0.330
-0.330
-0.280
-0.280
-0.260
-0.030
-0.010
-0.010
0.010
0.030
0.010
0.010
0.010
-0.010
0.050
0.070
0.080
0.080
0.020
-0.050
-0.010
0.030
0.060
0.040
0.030
-0.030
-0.040
-0.150
-0.140
-0.160
-0.150
-0.140
-0.180
-0.150
-0.140
-0.160
-0.110
-0.120
-0.150
-0.200
-0.210
-0.220
-0.250
-0.280
-0.290
-0.350
-0.370
-0.290
-0.310
-0.360
-0.330
-0.280
-0.240
-0.280
-0.270
-0.240
-0.310
-0.280
-0.250
-0.240
-0.270
-0.260
-0.230
-0.220
-0.220
-0.210
-0.220
-0.190
-0.140
-0.170
-0.160
-0.130
-0.100
-0.160
-0.130
-0.140
-0.090
-0.100
-0.120
-0.050
-0.080
-0.070
-0.070
-0.100
-0.090
-0.010
0.050
0.020
0.080
0.060
0.040
0.020
0.080
0.080
0.010
-0.020
-0.020
-0.020
-0.010
-0.010
-0.030
-0.030
-0.200
-0.260
-0.330
-0.350
-0.300
-0.300
-0.330
-0.370
-0.370
-0.410
-0.390
-0.390
-0.380
-0.400
-0.400
-0.360
-0.350
-0.320
-0.360
-0.330
-0.330
-0.240
-0.180
-0.160
-0.170
-0.170
-0.180
-0.140
-0.130
-0.160
-0.160
-0.150
-0.140
-0.130
-0.150
-0.140
-0.150
-0.100
-0.130
-0.050
-0.060
0.000
-0.010
0.000
-0.010
-0.150
-0.030
0.000
-0.030
0.000
-0.030
-0.020
-0.030
0.010
-0.020
-0.030
-0.020
-0.040
-0.050
-0.090
-0.120
-0.150
-0.160
-0.170
-0.160
-0.170
-0.200
-0.210
-0.220
-0.240
-0.230
-0.240
-0.270
-0.280
-0.220
-0.250
-0.240
-0.240
-0.270
-0.260
-0.280
-0.290
-0.280
-0.320
-0.310
-0.310
-0.320
-0.320
-0.330
-0.330
-0.330
-0.290
-0.320
-0.320
-0.300
-0.300
-0.260
-0.280
-0.260
-0.070
-0.030
-0.040
-0.020
-0.020
-0.010
0.010
0.030
0.050
0.030
0.030
-0.030
0.000
0.040
0.040
0.030
0.050
0.050
0.040
0.040
-0.010
-0.030
-0.130
-0.150
-0.140
-0.170
-0.150
-0.180
-0.170
-0.150
-0.160
-0.170
-0.160
-0.230
-0.170
-0.210
-0.220
-0.230
-0.250
-0.260
-0.250
-0.240
-0.250
-0.240
-0.300
-0.290
-0.280
-0.270
-0.260
-0.290
-0.300
-0.180
-0.240
-0.220
-0.270
-0.260
-0.230
-0.260
-0.250
-0.220
-0.210
-0.200
-0.150
-0.140
-0.170
-0.160
-0.150
-0.110
-0.100
-0.090
-0.180
-0.110
-0.090
-0.080
-0.050
0.010
-0.040
-0.050
-0.020
-0.020
-0.050
-0.040
-0.020
-0.010
-0.030
0.000
-0.040
-0.050
-0.010
-0.010
0.020
0.020
0.020
0.050
0.030
0.030
-0.010
-0.180
-0.220
-0.270
-0.360
-0.360
-0.360
-0.400
-0.370
-0.410
-0.390
-0.370
-0.370
-0.330
-0.310
-0.310
-0.270
-0.320
-0.300
-0.320
-0.310
-0.310
-0.260
-0.220
-0.190
-0.160
-0.170
-0.160
-0.140
-0.150
-0.140
-0.160
-0.190
-0.180
-0.140
-0.150
-0.140
-0.090
-0.080
-0.110
-0.040
-0.160
-0.080
0.010
-0.020
0.030
0.020
0.060
0.020
-0.010
0.000
-0.030
-0.010
-0.060
-0.030
-0.010
-0.020
-0.030
-0.040
-0.080
-0.110
-0.140
-0.110
-0.140
-0.150
-0.140
-0.150
-0.160
-0.180
-0.190
-0.200
-0.210
-0.200
-0.230
-0.230
-0.260
-0.270
-0.260
-0.240
-0.250
-0.300
-0.320
-0.310
-0.320
-0.300
-0.310
-0.290
-0.300
-0.320
-0.310
-0.310
-0.330
-0.320
-0.290
-0.290
-0.300
-0.280
-0.300
-0.330
-0.220
-0.070
0.000
0.000
0.000
-0.100
-0.100
-0.020
0.030
0.070
0.050
0.050
0.030
0.040
0.020
0.000
-0.010
0.030
-0.010
0.000
-0.020
-0.100
-0.120
-0.170
-0.170
-0.160
-0.160
-0.170
-0.180
-0.160
-0.150
-0.160
-0.170
-0.190
-0.180
-0.150
-0.190
-0.220
-0.240
-0.190
-0.240
-0.230
-0.240
-0.290
-0.310
-0.300
-0.290
-0.320
-0.340
-0.270
-0.300
-0.310
-0.340
-0.290
-0.280
-0.290
-0.260
-0.230
-0.280
-0.250
-0.260
-0.250
-0.260
-0.230
-0.160
-0.170
-0.180
-0.180
-0.150
-0.160
-0.210
-0.160
-0.130
-0.110
-0.100
-0.070
-0.060
0.010
-0.030
0.070
-0.020
-0.010
0.050
-0.020
-0.030
-0.010
-0.040
-0.040
-0.010
0.010
-0.050
-0.040
-0.020
-0.020
-0.030
-0.010
-0.030
-0.010
-0.070
-0.230
-0.250
-0.340
-0.340
-0.320
-0.340
-0.290
-0.330
-0.370
-0.390
-0.390
-0.350
-0.330
-0.340
-0.310
-0.310
-0.320
-0.350
-0.360
-0.330
-0.320
-0.240
-0.190
-0.140
-0.170
-0.150
-0.140
-0.170
-0.170
-0.140
-0.150
-0.130
-0.100
-0.260
-0.180
-0.190
-0.110
-0.140
-0.060
-0.050
-0.040
-0.010
0.000
0.010
0.000
-0.020
-0.010
-0.020
-0.030
-0.040
-0.030
-0.020
-0.050
-0.010
-0.050
-0.030
-0.040
-0.030
-0.060
-0.070
-0.110
-0.120
-0.150
-0.180
-0.190
-0.150
-0.180
-0.210
-0.200
-0.210
-0.220
-0.230
-0.250
-0.260
-0.270
-0.260
-0.260
-0.250
-0.280
-0.280
-0.290
-0.300
-0.320
-0.290
-0.330
-0.300
-0.270
-0.280
-0.280
-0.310
-0.320
-0.380
-0.340
-0.300
-0.300
-0.300
-0.300
-0.260
-0.150
-0.060
-0.020
0.000
0.020
0.040
0.000
0.020
0.050
0.070
0.090
0.090
0.070
0.060
0.080
0.040
0.070
0.050
0.060
0.040
0.000
-0.050
-0.090
-0.170
-0.180
-0.180
-0.170
-0.180
-0.200
-0.170
-0.180
-0.180
-0.150
-0.180
-0.170
-0.210
-0.190
-0.200
-0.190
-0.240
-0.210
-0.220
-0.250
-0.240
-0.260
-0.300
-0.240
-0.230
-0.240
-0.260
-0.330
-0.280
-0.250
-0.260
-0.350
-0.260
-0.230
-0.200
-0.190
-0.220
-0.170
-0.200
-0.150
-0.140
-0.160
-0.130
-0.140
-0.130
-0.080
-0.070
-0.080
-0.060
-0.070
-0.080
-0.070
-0.060
-0.060
-0.070
-0.040
-0.080
-0.050
-0.070
-0.040
-0.030
-0.050
0.000
0.000
-0.030
-0.010
-0.030
0.000
0.000
0.000
-0.030
-0.010
-0.010
-0.010
-0.010
-0.020
-0.230
-0.250
-0.320
-0.320
-0.340
-0.360
-0.380
-0.410
-0.390
-0.390
-0.410
-0.410
-0.380
-0.480
-0.360
-0.320
-0.320
-0.300
-0.290
-0.310
-0.300
-0.260
-0.160
-0.150
-0.130
-0.140
-0.120
-0.130
-0.140
-0.150
-0.130
-0.140
-0.150
-0.160
-0.140
-0.130
-0.120
-0.060
-0.050
-0.040
-0.010
-0.010
-0.020
-0.030
0.000
-0.050
-0.020
-0.010
-0.040
-0.050
-0.040
-0.070
-0.040
-0.050
-0.060
-0.040
-0.080
-0.040
-0.070
-0.110
-0.090
-0.100
-0.130
-0.160
-0.190
-0.180
-0.170
-0.450
-0.230
-0.220
-0.220
-0.210
-0.220
-0.200
-0.230
-0.240
-0.250
-0.260
-0.280
-0.270
-0.270
-0.300
-0.260
-0.260
-0.300
-0.320
-0.310
-0.310
-0.310
-0.290
-0.290
-0.320
-0.330
-0.300
-0.330
-0.300
-0.300
-0.190
-0.080
-0.040
-0.020
0.000
0.000
0.020
0.020
0.070
0.050
0.070
0.070
0.090
0.080
0.040
0.040
0.050
0.030
0.030
0.000
-0.020
-0.080
-0.100
-0.130
-0.150
-0.180
-0.230
-0.190
-0.140
-0.150
-0.150
-0.160
-0.170
-0.160
-0.180
-0.200
-0.230
-0.220
-0.230
-0.240
-0.210
-0.270
-0.300
-0.360
-0.310
-0.320
-0.310
-0.320
-0.310
-0.280
-0.200
-0.260
-0.230
-0.260
-0.270
-0.260
-0.270
-0.240
-0.250
-0.220
-0.210
-0.220
-0.200
-0.190
-0.180
-0.170
-0.140
-0.130
-0.160
-0.150
-0.150
-0.100
-0.090
-0.120
-0.170
-0.130
-0.060
-0.070
-0.070
-0.020
-0.030
-0.030
0.000
0.010
-0.010
-0.020
-0.040
0.030
0.010
0.010
0.000
0.000
0.000
0.050
-0.010
0.010
0.010
-0.030
-0.020
-0.190
-0.290
-0.340
-0.360
-0.340
-0.340
-0.380
-0.400
-0.450
-0.430
-0.430
-0.390
-0.350
-0.360
-0.340
-0.340
-0.320
-0.320
-0.330
-0.330
-0.300
-0.240
-0.190
-0.140
-0.170
-0.180
-0.140
-0.150
-0.120
-0.140
-0.170
-0.140
-0.170
-0.190
-0.120
-0.090
-0.010
0.000
-0.010
0.010
-0.020
0.010
0.020
0.010
-0.020
-0.030
-0.020
-0.010
0.000
-0.030
-0.040
-0.030
-0.060
-0.020
-0.030
-0.090
-0.080
-0.090
-0.100
-0.100
-0.110
-0.140
-0.150
-0.160
-0.190
-0.160
-0.210
-0.200
-0.190
-0.190
-0.200
-0.230
-0.260
-0.270
-0.270
-0.280
-0.270
-0.290
-0.280
-0.330
-0.310
-0.320
-0.330
-0.290
-0.460
-0.340
-0.310
-0.280
-0.310
-0.340
-0.320
-0.290
-0.280
-0.300
-0.300
-0.300
-0.290
-0.310
-0.170
-0.060
0.020
0.020
0.060
0.020
0.020
0.020
0.030
0.070
0.090
0.070
0.050
0.020
0.060
0.040
0.050
0.050
0.040
0.040
0.010
-0.050
-0.110
-0.150
-0.180
-0.200
-0.170
-0.180
-0.180
-0.190
-0.180
-0.150
-0.170
-0.180
-0.200
-0.210
-0.180
-0.230
-0.210
-0.240
-0.230
-0.390
-0.290
-0.310
-0.270
-0.220
-0.280
-0.220
-0.190
-0.270
-0.240
-0.230
-0.170
-0.250
-0.220
-0.240
-0.190
-0.130
-0.190
-0.200
-0.170
-0.140
-0.170
-0.140
-0.130
-0.120
-0.090
-0.100
-0.140
-0.090
-0.100
-0.110
-0.060
-0.050
-0.090
-0.100
-0.070
-0.070
-0.060
-0.070
-0.050
-0.040
-0.040
-0.010
0.000
-0.040
-0.020
-0.030
-0.030
0.000
0.000
-0.020
-0.010
-0.070
-0.070
-0.010
0.040
-0.060
-0.210
-0.270
-0.320
-0.320
-0.360
-0.340
-0.380
-0.400
-0.400
-0.430
-0.410
-0.430
-0.370
-0.380
-0.340
-0.310
-0.350
-0.350
-0.320
-0.310
-0.250
-0.240
-0.200
-0.140
-0.130
-0.130
-0.180
-0.130
-0.130
-0.140
-0.150
-0.170
-0.160
-0.170
-0.180
-0.110
-0.020
-0.050
-0.040
-0.050
-0.040
-0.050
-0.020
-0.050
0.000
-0.030
-0.040
-0.070
-0.090
-0.060
-0.030
-0.040
-0.030
-0.040
-0.020
-0.030
-0.020
-0.010
-0.060
-0.070
-0.080
-0.120
-0.130
-0.140
-0.150
-0.160
-0.170
-0.140
-0.180
-0.190
-0.220
-0.210
-0.220
-0.190
-0.230
-0.210
-0.270
-0.290
-0.280
-0.290
-0.310
-0.320
-0.320
-0.310
-0.320
-0.320
-0.300
-0.350
-0.330
-0.340
-0.340
-0.290
-0.350
-0.350
-0.350
-0.330
-0.340
-0.310
-0.150
-0.100
-0.020
-0.020
0.000
0.020
-0.150
-0.020
0.000
0.060
0.120
0.090
0.090
0.090
0.080
0.080
0.040
0.070
0.030
0.020
0.000
-0.100
-0.120
-0.170
-0.170
-0.180
-0.190
-0.170
-0.180
-0.150
-0.150
-0.160
-0.150
-0.160
-0.170
-0.150
-0.210
-0.220
-0.210
-0.200
-0.230
-0.260
-0.250
-0.310
-0.280
-0.320
-0.310
-0.320
-0.290
-0.300
-0.290
-0.280
-0.270
-0.320
-0.310
-0.300
-0.290
-0.280
-0.290
-0.280
-0.230
-0.220
-0.170
-0.200
-0.210
-0.140
-0.120
-0.130
-0.080
-0.070
-0.100
-0.050
-0.080
-0.100
-0.070
-0.060
-0.030
-0.050
-0.040
-0.030
-0.030
0.020
0.000
0.010
-0.010
0.040
0.020
0.030
0.080
0.060
0.020
-0.020
0.030
-0.010
0.010
0.010
0.020
-0.080
-0.230
-0.290
-0.340
-0.360
-0.340
-0.360
-0.360
-0.380
-0.400
-0.420
-0.410
-0.370
-0.350
-0.330
-0.380
-0.380
-0.340
-0.390
-0.370
-0.360
-0.310
-0.300
-0.180
-0.190
-0.160
-0.150
-0.140
-0.120
-0.110
-0.160
-0.160
-0.130
-0.100
-0.090
-0.130
-0.100
0.000
0.010
0.020
0.010
0.000
0.020
0.010
0.020
0.030
-0.020
-0.030
-0.020
-0.050
-0.060
-0.030
-0.120
-0.070
-0.040
-0.020
-0.030
-0.070
-0.080
-0.090
-0.070
-0.110
-0.140
-0.130
-0.180
-0.140
-0.170
-0.180
-0.170
-0.180
-0.210
-0.220
-0.210
-0.230
-0.260
-0.250
-0.240
-0.280
-0.270
-0.280
-0.260
-0.290
-0.380
-0.360
-0.310
-0.290
-0.300
-0.300
-0.260
-0.260
-0.290
-0.320
-0.270
-0.300
-0.330
-0.300
-0.330
-0.290
-0.290
-0.130
-0.060
-0.020
0.040
0.020
0.020
0.040
0.000
0.060
0.060
0.080
0.090
0.050
0.010
0.010
0.000
0.000
-0.010
0.010
-0.030
-0.020
-0.090
-0.100
-0.140
-0.150
-0.140
-0.180
-0.150
-0.160
-0.180
-0.170
-0.200
-0.190
-0.220
-0.230
-0.200
-0.210
-0.370
-0.260
-0.270
-0.260
-0.230
-0.240
-0.270
-0.280
-0.320
-0.330
-0.280
-0.270
-0.260
-0.270
-0.240
-0.200
-0.260
-0.230
-0.200
-0.230
-0.150
-0.230
-0.220
-0.240
-0.210
-0.180
-0.130
-0.180
-0.170
-0.160
-0.150
-0.120
-0.130
-0.120
-0.120
-0.110
-0.100
-0.070
-0.110
-0.100
-0.090
-0.100
-0.080
-0.090
-0.080
-0.060
-0.030
-0.010
-0.020
-0.040
0.010
-0.030
0.000
0.000
0.000
-0.030
-0.030
-0.010
-0.010
-0.020
0.020
-0.080
-0.230
-0.270
-0.340
-0.420
-0.320
-0.340
-0.340
-0.360
-0.360
-0.360
-0.390
-0.370
-0.350
-0.330
-0.340
-0.380
-0.360
-0.370
-0.350
-0.310
-0.310
-0.260
-0.200
-0.160
-0.160
-0.170
-0.140
-0.160
-0.130
-0.160
-0.140
-0.090
-0.140
-0.130
-0.120
-0.080
-0.110
-0.100
0.000
0.010
0.020
-0.010
-0.040
-0.010
-0.020
-0.050
-0.030
-0.020
-0.030
-0.040
-0.030
-0.020
-0.050
-0.010
-0.050
-0.080
-0.090
-0.080
-0.110
-0.100
-0.080
-0.160
-0.210
-0.160
-0.170
-0.180
-0.170
-0.180
-0.180
-0.190
-0.200
-0.210
-0.170
-0.200
-0.200
-0.210
-0.220
-0.250
-0.260
-0.240
-0.270
-0.300
-0.310
-0.310
-0.270
-0.300
-0.310
-0.280
-0.340
-0.320
-0.320
-0.300
-0.330
-0.330
-0.300
-0.360
-0.340
-0.290
-0.150
-0.040
-0.020
0.020
0.020
0.000
0.020
0.020
0.040
0.060
0.080
0.090
0.090
0.090
0.050
0.060
0.040
0.030
0.030
0.010
-0.040
-0.090
-0.140
-0.150
-0.170
-0.180
-0.240
-0.210
-0.140
-0.140
-0.110
-0.160
-0.150
-0.160
-0.210
-0.170
-0.230
-0.240
-0.250
-0.220
-0.230
-0.250
-0.260
-0.290
-0.260
-0.320
-0.240
-0.300
-0.240
-0.300
-0.270
-0.260
-0.200
-0.300
-0.290
-0.260
-0.270
-0.260
-0.250
-0.180
-0.210
-0.240
-0.190
-0.180
-0.150
-0.170
-0.200
-0.150
-0.160
-0.110
-0.100
-0.070
-0.090
-0.080
-0.090
-0.060
-0.010
-0.070
-0.040
-0.010
-0.070
-0.040
-0.040
-0.030
0.000
-0.020
-0.010
-0.160
-0.050
0.020
0.000
0.010
0.010
0.010
0.030
0.020
0.020
0.000
-0.150
-0.250
-0.320
-0.320
-0.360
-0.320
-0.320
-0.320
-0.380
-0.380
-0.400
-0.380
-0.370
-0.370
-0.370
-0.340
-0.360
-0.310
-0.350
-0.350
-0.310
-0.290
-0.220
-0.180
-0.160
-0.150
-0.170
-0.160
-0.140
-0.130
-0.140
-0.130
-0.130
-0.140
-0.110
-0.100
-0.150
-0.010
-0.120
-0.040
-0.070
-0.020
-0.050
-0.020
0.010
0.040
0.010
0.020
-0.030
-0.040
-0.070
-0.020
-0.030
-0.010
-0.020
-0.030
-0.040
-0.030
-0.060
-0.040
-0.100
-0.110
-0.140
-0.150
-0.140
-0.150
-0.160
-0.190
-0.200
-0.230
-0.240
-0.220
-0.250
-0.260
-0.250
-0.260
-0.240
-0.250
-0.260
-0.280
-0.290
-0.320
-0.300
-0.260
-0.290
-0.270
-0.300
-0.330
-0.310
-0.340
-0.320
-0.320
-0.330
-0.350
-0.330
-0.310
-0.340
-0.150
-0.190
-0.040
0.000
0.000
0.040
0.020
0.060
0.040
0.040
0.040
0.040
0.020
0.030
0.010
0.010
0.010
0.020
0.000
-0.100
-0.010
0.000
0.000
-0.050
-0.120
-0.130
-0.150
-0.140
-0.170
-0.170
-0.160
-0.150
-0.150
-0.180
-0.150
-0.180
-0.160
-0.170
-0.190
-0.150
-0.210
-0.220
-0.230
-0.260
-0.250
-0.270
-0.240
-0.320
-0.290
-0.210
-0.290
-0.190
-0.250
-0.240
-0.290
-0.300
-0.290
-0.280
-0.270
-0.280
-0.230
-0.240
-0.230
-0.220
-0.210
-0.180
-0.170
-0.140
-0.130
-0.150
-0.160
-0.130
-0.120
-0.110
-0.080
-0.080
-0.050
-0.080
-0.110
-0.090
-0.080
-0.070
-0.070
0.000
0.010
-0.010
-0.060
-0.100
-0.030
0.030
0.040
0.040
0.020
0.050
0.030
-0.010
0.010
0.040
0.020
0.000
-0.130
-0.270
-0.250
-0.290
-0.340
-0.320
-0.340
-0.340
-0.360
-0.360
-0.400
-0.380
-0.410
-0.370
-0.330
-0.340
-0.340
-0.310
-0.350
-0.320
-0.310
-0.270
-0.200
-0.180
-0.160
-0.150
-0.150
-0.160
-0.190
-0.150
-0.180
-0.170
-0.200
-0.180
-0.150
-0.140
-0.090
-0.120
-0.080
0.000
-0.050
0.000
-0.030
0.000
0.030
0.000
-0.010
-0.060
-0.010
-0.020
-0.030
-0.020
-0.030
-0.350
-0.110
-0.080
-0.040
-0.030
-0.040
-0.050
-0.080
-0.090
-0.090
-0.100
-0.110
-0.150
-0.180
-0.190
-0.200
-0.230
-0.240
-0.220
-0.230
-0.260
-0.270
-0.260
-0.240
-0.250
-0.230
-0.280
-0.290
-0.300
-0.300
-0.310
-0.290
-0.320
-0.320
-0.310
-0.330
-0.320
-0.320
-0.340
-0.330
-0.300
-0.300
-0.310
-0.340
-0.290
-0.290
-0.080
-0.020
0.020
0.020
0.000
0.020
0.040
0.020
0.040
0.040
0.060
0.050
0.050
0.010
-0.020
0.000
-0.060
-0.030
-0.010
-0.020
-0.040
-0.100
-0.140
-0.210
-0.230
-0.200
-0.190
-0.150
-0.180
-0.170
-0.150
-0.160
-0.150
-0.180
-0.150
-0.170
-0.190
-0.220
-0.230
-0.240
-0.270
-0.260
-0.270
-0.310
-0.260
-0.300
-0.350
-0.300
-0.350
-0.280
-0.290
-0.210
-0.230
-0.280
-0.270
-0.240
-0.230
-0.200
-0.230
-0.220
-0.170
-0.180
-0.230
-0.180
-0.130
-0.140
-0.090
-0.150
-0.140
-0.110
-0.080
-0.070
-0.060
-0.100
-0.110
-0.100
-0.050
-0.050
-0.020
-0.070
-0.090
-0.060
-0.030
-0.010
0.020
-0.020
-0.090
0.010
0.000
0.020
0.020
0.010
0.030
0.010
-0.010
0.000
-0.020
-0.020
-0.170
-0.250
-0.320
-0.340
-0.340
-0.380
-0.360
-0.380
-0.400
-0.380
-0.400
-0.390
-0.390
-0.350
-0.330
-0.360
-0.310
-0.350
-0.350
-0.350
-0.360
-0.270
-0.240
-0.200
-0.190
-0.200
-0.150
-0.160
-0.170
-0.170
-0.140
-0.150
-0.160
-0.140
-0.150
-0.140
-0.110
-0.100
-0.040
-0.040
-0.010
-0.060
-0.030
0.000
-0.030
-0.020
-0.010
-0.020
-0.030
-0.040
-0.030
-0.060
-0.030
-0.040
-0.020
-0.060
-0.040
-0.080
-0.230
-0.140
-0.110
-0.090
-0.070
-0.080
-0.090
-0.100
-0.130
-0.140
-0.200
-0.210
-0.220
-0.240
-0.210
-0.260
-0.250
-0.260
-0.260
-0.250
-0.260
-0.260
-0.310
-0.300
-0.280
-0.310
-0.290
-0.320
-0.320
-0.330
-0.280
-0.340
-0.290
-0.270
-0.330
-0.300
-0.300
-0.300
-0.290
-0.310
-0.290
-0.080
-0.020
0.020
0.000
0.020
0.000
0.020
0.020
0.020
0.020
0.030
0.030
0.030
0.010
0.040
0.020
-0.020
-0.010
-0.010
0.000
-0.060
-0.080
-0.200
-0.300
-0.230
-0.180
-0.150
-0.170
-0.140
-0.150
-0.140
-0.120
-0.150
-0.120
-0.170
-0.200
-0.160
-0.220
-0.210
-0.220
-0.210
-0.220
-0.270
-0.240
-0.300
-0.260
-0.260
-0.230
-0.220
-0.190
-0.250
-0.190
-0.230
-0.240
-0.270
-0.260
-0.250
-0.240
-0.270
-0.220
-0.210
-0.220
-0.170
-0.180
-0.190
-0.160
-0.150
-0.150
-0.120
-0.130
-0.100
-0.110
-0.100
-0.100
-0.090
-0.100
-0.070
-0.070
-0.080
-0.110
-0.090
-0.040
-0.040
-0.010
0.040
0.040
0.010
0.010
-0.090
0.020
0.000
0.000
0.010
0.030
0.030
0.020
0.040
0.000
-0.190
-0.250
-0.290
-0.320
-0.340
-0.320
-0.320
-0.380
-0.380
-0.420
-0.410
-0.410
-0.390
-0.350
-0.380
-0.360
-0.360
-0.320
-0.320
-0.360
-0.310
-0.280
-0.220
-0.190
-0.160
-0.130
-0.150
-0.120
-0.130
-0.130
-0.140
-0.170
-0.120
-0.150
-0.130
-0.140
-0.130
-0.080
-0.040
-0.030
-0.050
-0.020
-0.050
-0.020
0.010
-0.020
-0.030
-0.040
-0.050
-0.060
-0.070
-0.040
-0.070
-0.080
-0.150
-0.100
-0.070
-0.080
-0.040
-0.070
-0.060
-0.090
-0.090
-0.150
-0.140
-0.150
-0.130
-0.170
-0.180
-0.160
-0.200
-0.200
-0.180
-0.190
-0.230
-0.200
-0.190
-0.220
-0.230
-0.210
-0.220
-0.280
-0.250
-0.260
-0.290
-0.300
-0.300
-0.310
-0.330
-0.340
-0.360
-0.320
-0.350
-0.330
-0.330
-0.300
-0.340
-0.290
-0.250
-0.080
-0.040
-0.020
0.040
0.000
0.000
-0.020
-0.020
0.020
0.030
0.030
0.050
0.050
0.030
0.020
0.020
-0.010
-0.030
0.030
0.000
0.000
-0.050
-0.100
-0.150
-0.140
-0.160
-0.150
-0.140
-0.180
-0.150
-0.140
-0.180
-0.170
-0.180
-0.200
-0.190
-0.230
-0.220
-0.250
-0.260
-0.310
-0.280
-0.360
-0.350
-0.360
-0.350
-0.250
-0.230
-0.220
-0.260
-0.270
-0.260
-0.290
-0.280
-0.250
-0.280
-0.250
-0.260
-0.230
-0.240
-0.210
-0.180
-0.170
-0.140
-0.060
-0.120
-0.150
-0.150
-0.140
-0.130
-0.100
-0.110
-0.100
-0.100
0.000
-0.080
-0.090
-0.070
-0.080
-0.030
-0.030
-0.020
-0.040
-0.110
-0.050
0.040
0.020
0.030
0.050
0.040
0.000
-0.020
-0.010
-0.010
-0.030
-0.010
-0.040
0.000
-0.170
-0.270
-0.290
-0.360
-0.340
-0.360
-0.340
-0.380
-0.380
-0.360
-0.390
-0.390
-0.390
-0.350
-0.340
-0.310
-0.310
-0.370
-0.350
-0.360
-0.310
-0.280
-0.240
-0.210
-0.160
-0.170
-0.140
-0.140
-0.110
-0.160
-0.120
-0.130
-0.120
-0.110
-0.130
-0.120
-0.020
-0.100
-0.020
-0.050
-0.080
-0.040
-0.050
-0.040
-0.030
-0.020
-0.030
-0.020
-0.030
-0.080
-0.110
-0.100
-0.030
-0.040
-0.050
-0.060
-0.070
-0.080
-0.090
-0.100
-0.110
-0.140
-0.140
-0.150
-0.180
-0.170
-0.200
-0.210
-0.220
-0.210
-0.220
-0.240
-0.230
-0.220
-0.230
-0.250
-0.260
-0.220
-0.280
-0.260
-0.290
-0.290
-0.320
-0.310
-0.310
-0.300
-0.340
-0.330
-0.330
-0.330
-0.320
-0.320
-0.320
-0.330
-0.330
-0.280
-0.280
-0.310
-0.230
-0.080
-0.020
0.020
0.020
0.000
0.000
0.000
0.000
0.020
0.050
0.070
0.050
0.030
-0.080
-0.040
0.000
0.030
0.010
0.040
0.040
-0.030
-0.050
-0.130
-0.130
-0.120
-0.160
-0.150
-0.160
-0.160
-0.150
-0.160
-0.170
-0.170
-0.140
-0.200
-0.190
-0.220
-0.240
-0.230
-0.240
-0.230
-0.280
-0.270
-0.260
-0.300
-0.290
-0.300
-0.310
-0.340
-0.310
-0.310
-0.300
-0.310
-0.300
-0.290
-0.260
-0.270
-0.260
-0.250
-0.240
-0.230
-0.220
-0.190
-0.200
-0.150
-0.120
-0.130
-0.170
-0.160
-0.150
-0.120
-0.110
-0.100
-0.100
-0.050
-0.080
-0.100
-0.090
-0.040
0.050
-0.030
0.000
0.050
-0.010
0.030
0.000
0.000
0.030
0.030
0.060
0.000
0.000
0.030
0.030
0.010
0.030
0.010
-0.020
-0.230
-0.250
-0.320
-0.340
-0.380
-0.340
-0.340
-0.380
-0.420
-0.450
-0.430
-0.390
-0.370
-0.380
-0.340
-0.310
-0.350
-0.320
-0.350
-0.330
-0.310
-0.260
-0.220
-0.190
-0.150
-0.150
-0.160
-0.120
-0.150
-0.160
-0.190
-0.170
-0.140
-0.230
-0.180
-0.120
-0.090
-0.080
0.000
-0.010
-0.020
-0.030
0.010
0.000
0.010
0.000
-0.010
-0.020
-0.010
-0.040
-0.030
-0.020
-0.050
-0.060
-0.070
-0.060
-0.090
-0.080
-0.060
-0.070
-0.110
-0.120
-0.100
-0.130
-0.140
-0.150
-0.200
-0.190
-0.200
-0.210
-0.220
-0.200
-0.250
-0.260
-0.270
-0.250
-0.280
-0.290
-0.300
-0.300
-0.310
-0.290
-0.280
-0.310
-0.290
-0.320
-0.340
-0.330
-0.280
-0.330
-0.290
-0.290
-0.320
-0.300
-0.350
-0.390
-0.330
-0.280
-0.250
-0.100
-0.040
0.000
0.040
0.060
0.040
0.040
0.040
0.070
0.090
0.090
0.070
0.050
0.080
0.040
0.020
0.030
0.010
0.020
0.000
-0.100
-0.140
-0.150
-0.210
-0.200
-0.210
-0.190
-0.200
-0.210
-0.240
-0.200
-0.190
-0.240
-0.230
-0.220
-0.230
-0.240
-0.230
-0.270
-0.260
-0.250
-0.300
-0.230
-0.240
-0.320
-0.310
-0.280
-0.310
-0.210
-0.270
-0.280
-0.390
-0.300
-0.260
-0.160
-0.220
-0.230
-0.220
-0.230
-0.200
-0.210
-0.160
-0.210
-0.180
-0.080
-0.050
-0.130
-0.110
-0.050
-0.070
-0.030
-0.020
-0.060
-0.080
-0.070
-0.080
-0.070
-0.050
-0.040
-0.010
-0.050
0.000
0.000
-0.010
0.010
-0.020
-0.020
0.010
-0.010
-0.020
-0.040
0.020
-0.020
0.050
0.010
-0.010
0.010
-0.040
-0.190
-0.210
-0.290
-0.340
-0.340
-0.360
-0.380
-0.360
-0.390
-0.410
-0.490
-0.430
-0.390
-0.340
-0.340
-0.310
-0.350
-0.300
-0.330
-0.310
-0.290
-0.180
-0.210
-0.190
-0.150
-0.150
-0.120
-0.170
-0.170
-0.160
-0.130
-0.170
-0.140
-0.170
-0.160
-0.150
-0.110
-0.100
-0.110
-0.030
-0.020
0.010
0.020
-0.010
0.010
0.000
0.010
0.000
-0.010
-0.020
-0.010
0.010
-0.030
-0.010
-0.050
-0.080
-0.070
-0.120
-0.130
-0.140
-0.150
-0.120
-0.170
-0.180
-0.240
-0.210
-0.200
-0.170
-0.180
-0.190
-0.200
-0.170
-0.210
-0.260
-0.230
-0.230
-0.260
-0.250
-0.260
-0.260
-0.270
-0.290
-0.300
-0.310
-0.290
-0.300
-0.270
-0.310
-0.310
-0.310
-0.320
-0.320
-0.290
-0.330
-0.330
-0.280
-0.300
-0.300
-0.230
-0.080
-0.060
0.000
-0.020
0.000
0.000
0.020
0.050
0.070
0.070
0.050
0.070
0.060
0.060
0.060
0.050
0.030
-0.070
-0.020
0.020
-0.030
-0.100
-0.170
-0.170
-0.140
-0.190
-0.170
-0.160
-0.170
-0.150
-0.160
-0.190
-0.180
-0.180
-0.200
-0.190
-0.220
-0.230
-0.220
-0.240
-0.270
-0.260
-0.360
-0.350
-0.320
-0.350
-0.340
-0.310
-0.300
-0.310
-0.280
-0.290
-0.280
-0.270
-0.320
-0.290
-0.260
-0.260
-0.250
-0.220
-0.210
-0.200
-0.230
-0.200
-0.190
-0.140
-0.130
-0.100
-0.100
-0.070
-0.080
-0.230
-0.120
-0.080
-0.070
-0.020
-0.030
-0.010
0.030
-0.010
-0.030
-0.040
-0.040
-0.050
-0.010
-0.020
-0.020
0.030
0.080
0.040
0.000
0.020
0.010
-0.010
0.010
-0.050
-0.050
-0.100
-0.230
-0.290
-0.340
-0.340
-0.360
-0.360
-0.360
-0.360
-0.410
-0.390
-0.410
-0.370
-0.370
-0.340
-0.340
-0.290
-0.320
-0.300
-0.310
-0.330
-0.300
-0.220
-0.190
-0.160
-0.170
-0.170
-0.210
-0.190
-0.170
-0.160
-0.150
-0.120
-0.120
-0.130
-0.100
-0.130
-0.050
-0.100
-0.020
-0.010
-0.020
0.010
-0.020
-0.030
0.000
0.010
-0.020
-0.010
-0.010
-0.020
-0.030
-0.020
-0.090
-0.060
-0.070
-0.080
-0.090
-0.050
-0.090
-0.100
-0.110
-0.090
-0.150
-0.160
-0.170
-0.180
-0.160
-0.210
-0.200
-0.230
-0.240
-0.250
-0.230
-0.260
-0.270
-0.240
-0.320
-0.250
-0.210
-0.260
-0.270
-0.280
-0.280
-0.310
-0.290
-0.300
-0.300
-0.330
-0.310
-0.310
-0.320
-0.320
-0.320
-0.330
-0.330
-0.300
-0.280
-0.260
-0.150
-0.040
-0.020
0.000
0.000
0.000
0.020
0.020
0.030
0.070
0.090
0.050
0.050
0.060
0.020
0.040
0.050
0.030
0.010
0.000
-0.020
-0.050
-0.100
-0.170
-0.200
-0.180
-0.190
-0.190
-0.180
-0.190
-0.200
-0.270
-0.170
-0.180
-0.150
-0.200
-0.160
-0.180
-0.190
-0.220
-0.230
-0.220
-0.230
-0.290
-0.240
-0.230
-0.310
-0.320
-0.310
-0.230
-0.310
-0.260
-0.270
-0.300
-0.270
-0.280
-0.250
-0.260
-0.270
-0.220
-0.210
-0.220
-0.230
-0.170
-0.180
-0.130
-0.120
-0.090
-0.100
-0.090
-0.060
-0.080
-0.110
-0.080
-0.070
0.000
-0.040
-0.170
-0.090
-0.060
-0.030
-0.030
-0.040
-0.010
-0.010
0.000
-0.020
-0.020
-0.010
0.010
0.000
-0.020
0.000
0.010
-0.030
-0.030
-0.050
-0.010
-0.080
-0.230
-0.290
-0.320
-0.320
-0.340
-0.320
-0.360
-0.370
-0.390
-0.390
-0.390
-0.390
-0.360
-0.340
-0.310
-0.320
-0.320
-0.370
-0.380
-0.330
-0.300
-0.260
-0.210
-0.210
-0.170
-0.160
-0.140
-0.170
-0.200
-0.180
-0.190
-0.160
-0.170
-0.150
-0.180
-0.170
-0.100
-0.110
-0.120
-0.030
-0.060
0.010
-0.020
-0.010
-0.040
-0.030
0.000
-0.030
-0.020
-0.030
-0.060
-0.050
-0.040
-0.070
-0.120
-0.090
-0.070
-0.080
-0.110
-0.100
-0.110
-0.120
-0.130
-0.140
-0.150
-0.180
-0.210
-0.200
-0.200
-0.210
-0.220
-0.210
-0.220
-0.240
-0.250
-0.260
-0.290
-0.290
-0.300
-0.290
-0.310
-0.320
-0.340
-0.350
-0.330
-0.320
-0.510
-0.390
-0.330
-0.340
-0.320
-0.290
-0.280
-0.330
-0.300
-0.280
-0.280
-0.270
-0.130
-0.080
0.000
0.020
0.040
0.060
0.020
0.060
0.070
0.090
0.090
0.090
0.090
0.080
0.060
0.020
0.010
0.030
0.040
0.040
0.030
-0.050
-0.090
-0.150
-0.140
-0.140
-0.150
-0.160
-0.200
-0.150
-0.140
-0.170
-0.220
-0.230
-0.200
-0.210
-0.200
-0.220
-0.250
-0.280
-0.270
-0.260
-0.360
-0.240
-0.300
-0.330
-0.340
-0.330
-0.290
-0.300
-0.200
-0.260
-0.270
-0.280
-0.290
-0.240
-0.230
-0.200
-0.210
-0.200
-0.210
-0.200
-0.170
-0.140
-0.110
-0.070
-0.140
-0.040
-0.100
-0.020
-0.030
-0.020
-0.020
-0.060
-0.070
-0.060
-0.060
-0.090
-0.080
-0.080
-0.030
-0.060
-0.040
-0.010
0.010
0.000
-0.040
0.010
-0.030
-0.030
-0.020
-0.020
-0.020
0.010
0.010
0.010
-0.030
-0.050
-0.080
-0.230
-0.290
-0.440
-0.380
-0.380
-0.360
-0.380
-0.350
-0.410
-0.390
-0.430
-0.390
-0.380
-0.360
-0.340
-0.320
-0.300
-0.310
-0.360
-0.310
-0.280
-0.250
-0.190
-0.130
-0.150
-0.160
-0.130
-0.170
-0.160
-0.150
-0.150
-0.160
-0.110
-0.140
-0.150
-0.110
-0.100
-0.040
-0.010
-0.020
-0.010
0.000
-0.010
0.030
0.000
-0.010
-0.040
-0.010
-0.040
-0.050
-0.060
-0.110
-0.080
-0.070
-0.060
-0.090
-0.080
-0.150
-0.180
-0.130
-0.120
-0.150
-0.160
-0.140
-0.170
-0.160
-0.170
-0.180
-0.190
-0.200
-0.220
-0.210
-0.240
-0.250
-0.250
-0.210
-0.250
-0.280
-0.280
-0.290
-0.270
-0.280
-0.260
-0.310
-0.300
-0.300
-0.310
-0.310
-0.330
-0.270
-0.290
-0.320
-0.330
-0.330
-0.350
-0.350
-0.300
-0.150
-0.100
-0.060
-0.040
0.000
0.000
0.000
0.000
0.030
0.070
0.070
0.070
0.030
0.040
0.020
0.000
0.050
0.030
0.030
0.040
-0.210
-0.100
-0.140
-0.150
-0.140
-0.140
-0.170
-0.190
-0.160
-0.170
-0.170
-0.140
-0.150
-0.120
-0.150
-0.200
-0.210
-0.220
-0.210
-0.240
-0.250
-0.260
-0.240
-0.230
-0.280
-0.300
-0.330
-0.280
-0.270
-0.300
-0.270
-0.300
-0.270
-0.300
-0.230
-0.200
-0.230
-0.240
-0.250
-0.200
-0.170
-0.200
-0.240
-0.190
-0.180
-0.190
-0.140
-0.170
-0.160
-0.130
-0.130
-0.100
-0.150
-0.120
-0.070
-0.070
-0.060
-0.070
-0.050
-0.080
-0.030
-0.030
-0.120
-0.040
-0.070
0.000
0.000
0.000
0.010
-0.010
0.040
0.020
0.000
-0.010
-0.010
0.030
-0.030
-0.010
-0.080
-0.250
-0.290
-0.320
-0.320
-0.340
-0.340
-0.380
-0.430
-0.390
-0.410
-0.390
-0.350
-0.360
-0.360
-0.310
-0.300
-0.350
-0.320
-0.330
-0.330
-0.300
-0.240
-0.190
-0.160
-0.150
-0.140
-0.140
-0.170
-0.140
-0.060
-0.090
-0.120
-0.130
-0.170
-0.140
-0.150
-0.100
-0.130
-0.120
-0.050
-0.040
-0.010
-0.020
-0.280
-0.080
-0.010
0.000
-0.010
-0.020
-0.030
-0.060
0.000
-0.040
-0.020
-0.060
-0.070
-0.050
-0.090
-0.110
-0.100
-0.130
-0.140
-0.150
-0.160
-0.210
-0.200
-0.190
-0.220
-0.220
-0.210
-0.220
-0.210
-0.170
-0.220
-0.230
-0.210
-0.220
-0.200
-0.210
-0.220
-0.240
-0.280
-0.250
-0.260
-0.260
-0.320
-0.270
-0.260
-0.280
-0.270
-0.290
-0.290
-0.300
-0.330
-0.350
-0.330
-0.330
-0.310
-0.190
-0.100
-0.060
0.000
0.000
0.020
0.040
0.030
0.010
-0.010
0.010
0.050
0.080
0.020
0.060
0.050
0.050
0.050
0.020
0.000
-0.080
-0.140
-0.170
-0.170
-0.160
-0.190
-0.230
-0.180
-0.170
-0.150
-0.160
-0.150
-0.190
-0.160
-0.200
-0.210
-0.200
-0.230
-0.230
-0.280
-0.310
-0.330
-0.340
-0.240
-0.300
-0.260
-0.340
-0.330
-0.280
-0.310
-0.300
-0.270
-0.300
-0.290
-0.270
-0.260
-0.230
-0.220
-0.270
-0.200
-0.210
-0.240
-0.230
-0.200
-0.130
-0.160
-0.150
-0.200
-0.140
-0.110
-0.010
-0.050
-0.010
-0.060
-0.070
-0.060
-0.010
-0.070
-0.020
-0.050
-0.030
-0.020
-0.040
-0.010
-0.010
0.000
0.020
-0.010
0.010
0.020
0.000
-0.020
-0.020
-0.030
-0.030
-0.010
-0.030
-0.070
-0.230
-0.270
-0.320
-0.340
-0.340
-0.340
-0.360
-0.370
-0.390
-0.390
-0.390
-0.350
-0.330
-0.340
-0.310
-0.340
-0.300
-0.300
-0.310
-0.330
-0.300
-0.220
-0.210
-0.160
-0.170
-0.200
-0.180
-0.170
-0.150
-0.160
-0.170
-0.140
-0.120
-0.130
-0.140
-0.130
-0.120
-0.140
-0.150
0.010
0.020
0.030
0.000
0.010
0.000
0.010
0.000
-0.010
-0.040
-0.010
-0.020
-0.020
-0.030
-0.010
-0.050
-0.060
-0.070
-0.080
-0.110
-0.100
-0.110
-0.160
-0.170
-0.180
-0.190
-0.180
-0.190
-0.210
-0.220
-0.210
-0.220
-0.210
-0.220
-0.240
-0.230
-0.260
-0.260
-0.270
-0.260
-0.260
-0.240
-0.280
-0.280
-0.310
-0.310
-0.300
-0.340
-0.350
-0.330
-0.340
-0.360
-0.360
-0.320
-0.350
-0.300
-0.330
-0.330
-0.300
-0.130
-0.060
-0.020
-0.020
-0.040
-0.170
-0.020
0.040
0.050
0.070
0.070
0.090
0.090
0.060
0.060
0.060
0.030
0.070
0.040
0.060
0.010
-0.050
-0.110
-0.130
-0.120
-0.160
-0.170
-0.160
-0.180
-0.170
-0.140
-0.130
-0.130
-0.160
-0.170
-0.190
-0.180
-0.200
-0.190
-0.200
-0.210
-0.260
-0.290
-0.330
-0.230
-0.290
-0.280
-0.290
-0.290
-0.230
-0.250
-0.280
-0.250
-0.260
-0.250
-0.260
-0.210
-0.220
-0.250
-0.220
-0.210
-0.180
-0.190
-0.180
-0.170
-0.180
-0.160
-0.060
-0.100
-0.070
-0.120
-0.130
-0.210
-0.140
-0.070
-0.060
-0.020
-0.030
-0.020
0.030
0.040
-0.020
-0.020
-0.010
-0.010
-0.040
0.000
0.030
0.010
0.010
-0.020
0.000
-0.020
0.010
0.030
-0.030
-0.030
-0.220
-0.270
-0.320
-0.340
-0.360
-0.360
-0.380
-0.400
-0.420
-0.410
-0.410
-0.410
-0.370
-0.390
-0.360
-0.340
-0.310
-0.350
-0.350
-0.330
-0.330
-0.280
-0.220
-0.190
-0.140
-0.150
-0.150
-0.100
-0.150
-0.170
-0.160
-0.150
-0.170
-0.160
-0.190
-0.180
-0.190
-0.110
-0.100
-0.040
-0.030
-0.060
-0.140
-0.040
-0.010
0.000
-0.010
0.000
0.000
-0.010
0.000
-0.030
-0.020
-0.050
-0.040
-0.020
-0.060
-0.040
-0.050
-0.090
-0.070
-0.130
-0.120
-0.130
-0.110
-0.150
-0.130
-0.160
-0.190
-0.180
-0.210
-0.220
-0.230
-0.250
-0.260
-0.230
-0.240
-0.240
-0.250
-0.260
-0.260
-0.270
-0.300
-0.300
-0.310
-0.310
-0.320
-0.320
-0.310
-0.330
-0.350
-0.340
-0.360
-0.320
-0.350
-0.330
-0.370
-0.350
-0.280
-0.150
-0.060
-0.040
0.000
0.020
0.020
-0.020
-0.020
-0.010
0.070
0.090
0.090
0.070
0.080
0.060
0.040
0.090
0.030
0.040
0.040
-0.040
-0.080
-0.150
-0.190
-0.160
-0.180
-0.170
-0.200
-0.200
-0.190
-0.200
-0.160
-0.170
-0.180
-0.170
-0.210
-0.190
-0.220
-0.210
-0.260
-0.270
-0.240
-0.250
-0.310
-0.230
-0.260
-0.290
-0.320
-0.290
-0.300
-0.290
-0.240
-0.270
-0.280
-0.270
-0.260
-0.270
-0.220
-0.210
-0.220
-0.190
-0.180
-0.170
-0.160
-0.150
-0.120
-0.100
-0.130
-0.100
-0.130
-0.140
-0.130
-0.130
-0.140
-0.090
-0.080
-0.100
-0.170
-0.060
-0.040
-0.030
0.020
-0.020
-0.010
0.060
0.020
0.000
0.010
-0.010
-0.010
0.020
0.020
-0.020
0.010
-0.010
-0.010
-0.010
-0.030
-0.210
-0.230
-0.320
-0.340
-0.360
-0.340
-0.340
-0.360
-0.350
-0.390
-0.390
-0.390
-0.390
-0.380
-0.360
-0.340
-0.350
-0.320
-0.330
-0.310
-0.250
-0.220
-0.190
-0.140
-0.170
-0.170
-0.140
-0.170
-0.130
-0.160
-0.110
-0.110
-0.100
-0.110
-0.080
-0.090
-0.110
-0.030
-0.060
-0.010
0.000
0.010
0.020
-0.030
-0.020
-0.020
-0.110
-0.060
-0.010
-0.040
-0.010
-0.060
-0.050
-0.060
-0.070
-0.030
-0.040
-0.080
-0.090
-0.100
-0.080
-0.090
-0.100
-0.140
-0.150
-0.150
-0.180
-0.190
-0.150
-0.210
-0.220
-0.210
-0.230
-0.220
-0.230
-0.260
-0.240
-0.270
-0.260
-0.260
-0.310
-0.300
-0.300
-0.310
-0.310
-0.300
-0.300
-0.330
-0.310
-0.310
-0.340
-0.340
-0.320
-0.300
-0.300
-0.300
-0.300
-0.260
-0.080
-0.040
0.000
0.020
-0.020
0.000
-0.040
-0.040
0.010
0.030
0.070
0.070
-0.140
0.000
0.060
0.060
0.090
0.050
0.040
0.040
-0.020
-0.080
-0.100
-0.150
-0.140
-0.140
-0.170
-0.140
-0.160
-0.170
-0.140
-0.160
-0.190
-0.160
-0.170
-0.190
-0.210
-0.240
-0.230
-0.240
-0.210
-0.280
-0.230
-0.240
-0.310
-0.250
-0.310
-0.340
-0.310
-0.280
-0.270
-0.300
-0.290
-0.260
-0.290
-0.260
-0.250
-0.240
-0.250
-0.220
-0.210
-0.220
-0.190
-0.160
-0.110
-0.170
-0.140
-0.110
-0.140
-0.150
-0.140
-0.130
-0.110
-0.080
-0.050
-0.060
-0.080
-0.070
-0.120
-0.100
-0.050
0.000
0.050
0.010
0.010
0.000
-0.020
0.010
0.100
0.030
0.040
0.000
0.000
0.010
0.010
-0.010
-0.030
-0.010
-0.170
-0.230
-0.290
-0.320
-0.340
-0.340
-0.360
-0.360
-0.390
-0.430
-0.410
-0.390
-0.390
-0.380
-0.400
-0.360
-0.350
-0.370
-0.390
-0.380
-0.310
-0.280
-0.200
-0.140
-0.170
-0.110
-0.160
-0.120
-0.130
-0.140
-0.150
-0.130
-0.140
-0.150
-0.180
-0.140
-0.130
-0.080
-0.110
-0.260
-0.130
-0.010
0.000
0.010
0.030
0.000
-0.010
-0.040
-0.050
-0.060
-0.050
-0.060
-0.050
-0.060
-0.090
-0.100
-0.090
-0.080
-0.090
-0.100
-0.080
-0.120
-0.100
-0.140
-0.150
-0.170
-0.160
-0.190
-0.180
-0.190
-0.220
-0.250
-0.250
-0.260
-0.290
-0.280
-0.260
-0.290
-0.300
-0.260
-0.290
-0.280
-0.280
-0.260
-0.260
-0.270
-0.270
-0.310
-0.330
-0.330
-0.320
-0.290
-0.320
-0.300
-0.330
-0.330
-0.300
-0.240
-0.100
-0.020
0.000
0.000
0.000
0.020
0.040
-0.040
-0.010
0.050
0.070
0.070
0.070
0.060
0.060
0.040
0.030
0.010
0.030
0.040
-0.020
-0.050
-0.120
-0.150
-0.140
-0.180
-0.170
-0.190
-0.160
-0.130
-0.180
-0.140
-0.170
-0.180
-0.170
-0.200
-0.210
-0.220
-0.210
-0.240
-0.270
-0.240
-0.290
-0.340
-0.330
-0.270
-0.260
-0.250
-0.310
-0.300
-0.290
-0.280
-0.250
-0.280
-0.270
-0.280
-0.250
-0.240
-0.250
-0.240
-0.230
-0.220
-0.210
-0.220
-0.220
-0.210
-0.160
-0.110
-0.100
-0.070
-0.200
-0.160
-0.110
-0.080
-0.070
-0.080
-0.060
-0.070
-0.100
-0.080
-0.030
-0.020
0.020
-0.030
0.010
0.000
0.000
-0.010
-0.030
-0.010
-0.040
-0.020
-0.020
0.010
-0.030
-0.010
-0.010
-0.030
-0.190
-0.210
-0.340
-0.320
-0.360
-0.340
-0.340
-0.360
-0.370
-0.410
-0.350
-0.390
-0.390
-0.360
-0.310
-0.310
-0.300
-0.320
-0.300
-0.330
-0.310
-0.260
-0.240
-0.190
-0.170
-0.200
-0.210
-0.230
-0.170
-0.200
-0.170
-0.150
-0.140
-0.150
-0.160
-0.140
-0.150
-0.180
-0.090
-0.030
-0.020
0.010
-0.040
0.000
-0.010
-0.020
-0.010
-0.020
-0.030
-0.020
-0.050
-0.040
-0.090
-0.060
-0.070
-0.080
-0.090
-0.030
-0.060
-0.070
-0.080
-0.120
-0.130
-0.140
-0.160
-0.170
-0.180
-0.190
-0.150
-0.190
-0.200
-0.220
-0.210
-0.260
-0.250
-0.260
-0.240
-0.270
-0.260
-0.280
-0.270
-0.280
-0.280
-0.290
-0.330
-0.320
-0.300
-0.310
-0.310
-0.310
-0.320
-0.320
-0.340
-0.350
-0.370
-0.330
-0.350
-0.300
-0.290
-0.190
-0.060
0.020
0.040
0.080
0.040
0.080
0.090
0.090
0.090
0.050
0.050
0.080
0.020
0.000
0.030
0.010
0.010
0.020
-0.060
-0.100
-0.180
-0.170
-0.160
-0.180
-0.190
-0.190
-0.180
-0.170
-0.160
-0.160
-0.150
-0.140
-0.110
-0.170
-0.210
-0.200
-0.230
-0.220
-0.250
-0.260
-0.340
-0.360
-0.330
-0.320
-0.350
-0.320
-0.290
-0.300
-0.290
-0.280
-0.270
-0.320
-0.290
-0.260
-0.250
-0.240
-0.270
-0.280
-0.210
-0.180
-0.150
-0.120
-0.160
-0.080
-0.120
-0.150
-0.100
-0.070
-0.100
-0.100
-0.090
-0.060
-0.070
-0.040
-0.100
-0.010
-0.020
-0.040
-0.050
-0.030
-0.040
0.010
0.010
0.000
-0.040
-0.010
0.030
0.010
0.020
0.020
0.060
0.030
0.010
0.010
-0.010
-0.010
-0.190
-0.230
-0.290
-0.320
-0.340
-0.360
-0.320
-0.360
-0.390
-0.390
-0.410
-0.410
-0.390
-0.400
-0.360
-0.340
-0.350
-0.370
-0.390
-0.360
-0.330
-0.240
-0.220
-0.250
-0.150
-0.130
-0.120
-0.120
-0.090
-0.100
-0.130
-0.150
-0.160
-0.130
-0.120
-0.160
-0.090
-0.100
-0.020
-0.010
0.020
-0.010
0.010
0.020
0.010
0.000
0.010
0.000
-0.010
-0.020
-0.030
-0.060
-0.070
-0.060
-0.020
-0.060
-0.070
-0.050
-0.110
-0.100
-0.150
-0.120
-0.150
-0.150
-0.140
-0.190
-0.200
-0.190
-0.200
-0.210
-0.220
-0.240
-0.250
-0.260
-0.290
-0.270
-0.300
-0.270
-0.280
-0.300
-0.290
-0.290
-0.320
-0.370
-0.330
-0.320
-0.300
-0.280
-0.280
-0.280
-0.320
-0.270
-0.290
-0.330
-0.280
-0.300
-0.280
-0.280
-0.170
-0.060
-0.020
-0.020
0.040
0.020
0.040
0.000
0.030
0.070
0.090
0.090
0.050
0.060
0.060
0.020
0.050
0.030
0.010
0.020
0.000
-0.050
-0.140
-0.130
-0.160
-0.180
-0.150
-0.190
-0.160
-0.170
-0.190
-0.140
-0.170
-0.160
-0.170
-0.200
-0.230
-0.240
-0.210
-0.220
-0.230
-0.430
-0.350
-0.250
-0.260
-0.340
-0.290
-0.210
-0.240
-0.230
-0.250
-0.260
-0.250
-0.240
-0.270
-0.240
-0.230
-0.240
-0.230
-0.180
-0.190
-0.180
-0.210
-0.210
-0.180
-0.150
-0.180
-0.110
-0.120
-0.090
-0.100
-0.080
-0.090
-0.010
-0.070
-0.070
-0.040
-0.090
-0.060
-0.040
-0.030
-0.050
-0.040
-0.050
-0.050
-0.020
-0.020
-0.010
-0.010
-0.050
-0.040
-0.040
0.000
-0.010
0.010
-0.010
-0.030
-0.070
-0.290
-0.320
-0.320
-0.340
-0.320
-0.340
-0.340
-0.340
-0.390
-0.370
-0.370
-0.370
-0.370
-0.340
-0.310
-0.310
-0.370
-0.350
-0.320
-0.330
-0.330
-0.260
-0.200
-0.190
-0.140
-0.110
-0.120
-0.120
-0.150
-0.120
-0.120
-0.150
-0.140
-0.170
-0.120
-0.100
-0.090
-0.030
-0.090
-0.010
-0.020
-0.010
0.030
0.020
0.010
-0.020
-0.030
-0.040
-0.030
-0.020
-0.050
-0.250
-0.090
-0.060
-0.050
-0.080
-0.090
-0.100
-0.110
-0.120
-0.130
-0.120
-0.140
-0.170
-0.160
-0.170
-0.160
-0.210
-0.180
-0.190
-0.240
-0.220
-0.230
-0.240
-0.270
-0.250
-0.280
-0.270
-0.280
-0.260
-0.290
-0.270
-0.250
-0.310
-0.290
-0.300
-0.270
-0.310
-0.310
-0.280
-0.320
-0.320
-0.290
-0.350
-0.300
-0.330
-0.300
-0.280
-0.150
-0.060
-0.020
0.040
-0.040
-0.040
-0.040
0.000
0.030
0.070
0.050
0.070
0.030
-0.020
0.020
0.040
0.050
0.030
0.010
0.000
0.000
-0.100
-0.120
-0.170
-0.150
-0.100
-0.130
-0.170
-0.160
-0.150
-0.150
-0.140
-0.150
-0.180
-0.180
-0.170
-0.160
-0.220
-0.230
-0.240
-0.250
-0.250
-0.280
-0.340
-0.310
-0.340
-0.290
-0.250
-0.310
-0.320
-0.290
-0.280
-0.270
-0.280
-0.270
-0.280
-0.250
-0.200
-0.250
-0.220
-0.250
-0.230
-0.240
-0.170
-0.160
-0.290
-0.220
-0.150
-0.140
-0.110
-0.090
-0.060
-0.070
-0.040
0.000
-0.030
-0.040
-0.070
-0.070
-0.080
-0.090
-0.030
-0.020
-0.010
-0.030
-0.020
-0.040
-0.040
0.010
-0.010
0.040
0.060
0.020
0.010
0.010
-0.010
0.010
-0.010
-0.020
-0.230
-0.270
-0.320
-0.400
-0.360
-0.380
-0.360
-0.360
-0.430
-0.430
-0.410
-0.410
-0.380
-0.360
-0.360
-0.390
-0.370
-0.300
-0.330
-0.310
-0.280
-0.300
-0.230
-0.140
-0.130
-0.120
-0.100
-0.130
-0.120
-0.140
-0.110
-0.120
-0.150
-0.130
-0.140
-0.130
-0.100
-0.060
-0.010
-0.010
0.080
0.010
0.020
0.030
0.020
0.010
0.000
-0.030
-0.020
-0.050
-0.040
-0.050
-0.060
-0.020
-0.030
-0.040
-0.050
-0.110
-0.120
-0.120
-0.110
-0.120
-0.150
-0.160
-0.170
-0.160
-0.210
-0.220
-0.250
-0.230
-0.240
-0.250
-0.410
-0.270
-0.250
-0.240
-0.250
-0.250
-0.300
-0.270
-0.290
-0.300
-0.280
-0.290
-0.300
-0.320
-0.270
-0.280
-0.280
-0.250
-0.290
-0.270
-0.330
-0.300
-0.330
-0.300
-0.300
-0.130
-0.040
0.000
0.020
0.020
0.000
0.020
0.000
0.040
0.050
0.070
0.090
0.030
0.060
0.040
0.000
0.020
-0.010
-0.010
0.000
-0.060
-0.100
-0.140
-0.130
-0.170
-0.220
-0.210
-0.190
-0.180
-0.150
-0.150
-0.140
-0.150
-0.140
-0.140
-0.170
-0.160
-0.240
-0.210
-0.220
-0.240
-0.230
-0.260
-0.230
-0.240
-0.230
-0.240
-0.300
-0.290
-0.230
-0.310
-0.210
-0.270
-0.280
-0.270
-0.260
-0.270
-0.280
-0.260
-0.250
-0.220
-0.210
-0.220
-0.170
-0.160
-0.150
-0.160
-0.170
-0.140
-0.160
-0.170
-0.140
-0.110
-0.120
-0.110
-0.110
-0.100
-0.050
-0.050
-0.230
-0.090
-0.050
-0.040
-0.040
-0.010
-0.030
0.020
0.000
-0.010
0.010
0.000
0.040
0.000
0.030
-0.010
-0.010
0.010
-0.010
-0.020
-0.230
-0.250
-0.320
-0.340
-0.340
-0.380
-0.400
-0.400
-0.430
-0.390
-0.390
-0.390
-0.350
-0.360
-0.340
-0.340
-0.320
-0.320
-0.360
-0.360
-0.300
-0.260
-0.210
-0.140
-0.150
-0.150
-0.100
-0.110
-0.150
-0.140
-0.150
-0.120
-0.140
-0.130
-0.140
-0.130
-0.030
0.000
0.000
0.030
0.000
0.010
0.020
0.010
-0.020
-0.030
-0.020
-0.050
-0.060
-0.050
-0.060
-0.070
-0.060
-0.050
-0.060
-0.080
-0.070
-0.100
-0.110
-0.100
-0.130
-0.120
-0.130
-0.160
-0.170
-0.220
-0.190
-0.200
-0.200
-0.190
-0.220
-0.230
-0.220
-0.220
-0.230
-0.210
-0.250
-0.250
-0.280
-0.330
-0.330
-0.320
-0.300
-0.330
-0.330
-0.510
-0.340
-0.310
-0.310
-0.320
-0.290
-0.290
-0.350
-0.330
-0.300
-0.300
-0.300
-0.130
-0.040
-0.020
0.040
0.060
0.040
0.040
0.060
0.040
0.070
0.070
0.050
0.050
0.030
0.040
0.040
0.040
0.010
0.050
0.000
-0.020
-0.050
-0.140
-0.170
-0.190
-0.180
-0.180
-0.210
-0.180
-0.180
-0.170
-0.160
-0.190
-0.150
-0.180
-0.200
-0.210
-0.240
-0.260
-0.270
-0.260
-0.230
-0.260
-0.270
-0.350
-0.320
-0.290
-0.230
-0.270
-0.190
-0.220
-0.210
-0.210
-0.250
-0.300
-0.250
-0.260
-0.270
-0.260
-0.270
-0.240
-0.230
-0.160
-0.190
-0.160
-0.130
-0.160
-0.130
-0.130
-0.120
-0.090
-0.120
-0.110
-0.100
-0.080
-0.070
-0.100
-0.110
-0.110
-0.120
-0.070
-0.090
-0.040
-0.020
-0.010
0.010
-0.020
0.130
0.030
-0.030
-0.020
-0.020
0.000
-0.010
-0.010
-0.050
-0.030
-0.010
-0.020
-0.170
-0.210
-0.270
-0.290
-0.320
-0.320
-0.340
-0.340
-0.390
-0.370
-0.370
-0.370
-0.370
-0.340
-0.340
-0.310
-0.300
-0.350
-0.330
-0.360
-0.320
-0.280
-0.210
-0.160
-0.150
-0.150
-0.140
-0.170
-0.130
-0.140
-0.170
-0.160
-0.160
-0.150
-0.140
-0.130
-0.080
-0.080
0.000
-0.010
-0.020
-0.030
-0.020
-0.030
-0.020
-0.010
-0.020
-0.070
-0.070
-0.060
-0.050
-0.060
-0.070
-0.040
-0.090
-0.060
-0.260
-0.120
-0.090
-0.100
-0.110
-0.120
-0.150
-0.160
-0.170
-0.160
-0.190
-0.190
-0.180
-0.190
-0.200
-0.230
-0.230
-0.220
-0.250
-0.260
-0.260
-0.290
-0.280
-0.280
-0.290
-0.300
-0.300
-0.290
-0.290
-0.300
-0.300
-0.310
-0.310
-0.340
-0.320
-0.290
-0.320
-0.330
-0.300
-0.300
-0.300
-0.290
-0.100
-0.060
-0.020
-0.020
-0.020
-0.020
0.000
0.000
0.010
0.030
0.030
0.030
0.050
0.020
0.040
-0.080
-0.010
0.050
0.060
0.040
0.020
-0.050
-0.070
-0.130
-0.180
-0.200
-0.210
-0.200
-0.180
-0.170
-0.180
-0.180
-0.190
-0.160
-0.170
-0.210
-0.210
-0.260
-0.270
-0.260
-0.270
-0.300
-0.270
-0.330
-0.270
-0.310
-0.260
-0.250
-0.240
-0.260
-0.270
-0.280
-0.270
-0.280
-0.250
-0.260
-0.250
-0.240
-0.250
-0.200
-0.190
-0.160
-0.150
-0.120
-0.110
-0.140
-0.160
-0.130
-0.120
-0.130
-0.120
-0.070
-0.070
-0.060
-0.070
-0.120
-0.060
-0.010
0.000
0.000
0.040
0.020
-0.040
-0.010
-0.030
0.000
0.000
-0.030
-0.010
-0.030
-0.020
0.000
-0.020
0.010
-0.010
-0.030
-0.030
-0.130
-0.230
-0.290
-0.320
-0.340
-0.340
-0.340
-0.380
-0.380
-0.410
-0.410
-0.410
-0.390
-0.370
-0.360
-0.360
-0.310
-0.350
-0.320
-0.320
-0.360
-0.270
-0.240
-0.150
-0.190
-0.150
-0.170
-0.140
-0.170
-0.150
-0.140
-0.210
-0.210
-0.160
-0.150
-0.100
-0.110
-0.070
-0.220
-0.040
-0.010
0.020
0.030
0.020
0.010
-0.010
0.000
-0.010
0.000
-0.030
-0.060
-0.070
-0.080
-0.050
-0.060
-0.070
-0.080
-0.070
-0.050
-0.060
-0.100
-0.080
-0.120
-0.130
-0.140
-0.190
-0.170
-0.160
-0.140
-0.200
-0.210
-0.200
-0.250
-0.230
-0.240
-0.230
-0.240
-0.240
-0.220
-0.260
-0.260
-0.270
-0.280
-0.300
-0.310
-0.290
-0.300
-0.340
-0.370
-0.370
-0.330
-0.340
-0.270
-0.290
-0.300
-0.260
-0.370
-0.370
-0.350
-0.150
-0.040
-0.040
-0.060
0.020
0.020
0.020
0.020
0.030
0.070
0.030
0.050
0.030
0.040
0.020
0.000
0.030
-0.010
0.030
0.020
-0.020
-0.050
-0.100
-0.130
-0.140
-0.160
-0.170
-0.190
-0.160
-0.150
-0.140
-0.160
-0.170
-0.160
-0.150
-0.150
-0.140
-0.220
-0.170
-0.240
-0.230
-0.240
-0.250
-0.250
-0.310
-0.320
-0.240
-0.280
-0.270
-0.280
-0.310
-0.260
-0.270
-0.280
-0.310
-0.280
-0.270
-0.260
-0.270
-0.240
-0.210
-0.390
-0.250
-0.180
-0.140
-0.150
-0.100
-0.130
-0.100
-0.040
-0.010
0.010
0.000
0.030
-0.070
-0.060
-0.080
-0.050
-0.060
-0.060
-0.030
-0.030
-0.060
-0.050
-0.030
-0.040
0.000
0.010
-0.010
-0.010
0.000
-0.020
-0.040
0.030
0.010
-0.010
-0.010
-0.140
-0.210
-0.270
-0.290
-0.320
-0.290
-0.360
-0.360
-0.360
-0.390
-0.390
-0.390
-0.350
-0.370
-0.360
-0.360
-0.360
-0.370
-0.410
-0.390
-0.360
-0.310
-0.240
-0.200
-0.190
-0.170
-0.170
-0.250
-0.210
-0.150
-0.140
-0.160
-0.130
-0.160
-0.150
-0.120
-0.100
-0.070
-0.100
0.000
0.010
-0.020
0.010
-0.010
0.020
0.030
-0.020
0.010
-0.020
-0.010
-0.020
-0.030
-0.040
-0.070
-0.010
-0.090
-0.060
-0.070
-0.080
-0.090
-0.100
-0.130
-0.160
-0.170
-0.150
-0.180
-0.190
-0.180
-0.210
-0.180
-0.210
-0.200
-0.200
-0.180
-0.190
-0.200
-0.230
-0.210
-0.250
-0.260
-0.260
-0.270
-0.270
-0.320
-0.310
-0.330
-0.320
-0.320
-0.350
-0.430
-0.390
-0.320
-0.290
-0.270
-0.280
-0.260
-0.260
-0.260
-0.260
-0.100
-0.020
0.040
0.040
0.040
0.000
0.000
0.020
0.030
0.050
0.070
0.030
0.030
0.040
0.020
0.020
0.010
0.050
0.030
0.040
-0.020
-0.080
-0.120
-0.150
-0.170
-0.180
-0.190
-0.190
-0.180
-0.150
-0.190
-0.200
-0.170
-0.140
-0.170
-0.200
-0.230
-0.240
-0.230
-0.260
-0.270
-0.260
-0.240
-0.290
-0.260
-0.320
-0.370
-0.320
-0.310
-0.300
-0.290
-0.210
-0.250
-0.280
-0.290
-0.320
-0.290
-0.220
-0.190
-0.160
-0.100
-0.110
-0.140
-0.170
-0.160
-0.130
-0.100
-0.090
-0.120
-0.130
-0.080
-0.100
-0.050
-0.080
-0.050
-0.090
-0.080
-0.070
-0.040
-0.040
-0.030
-0.030
-0.020
-0.030
-0.010
-0.020
-0.020
-0.010
-0.030
-0.030
-0.060
-0.020
0.000
0.010
0.010
0.010
0.010
-0.030
-0.170
-0.250
-0.360
-0.320
-0.360
-0.340
-0.360
-0.380
-0.390
-0.410
-0.430
-0.450
-0.450
-0.420
-0.380
-0.360
-0.350
-0.390
-0.390
-0.380
-0.310
-0.260
-0.200
-0.140
-0.160
-0.150
-0.160
-0.140
-0.150
-0.140
-0.140
-0.130
-0.140
-0.130
-0.090
-0.100
-0.040
0.010
-0.020
0.010
-0.020
0.020
-0.010
-0.020
0.010
-0.020
-0.010
0.000
-0.050
-0.020
-0.030
-0.040
-0.050
-0.040
-0.050
-0.060
-0.040
-0.080
-0.060
-0.070
-0.080
-0.120
-0.120
-0.100
-0.110
-0.170
-0.180
-0.190
-0.180
-0.210
-0.190
-0.220
-0.250
-0.240
-0.250
-0.270
-0.260
-0.290
-0.290
-0.300
-0.310
-0.290
-0.300
-0.310
-0.290
-0.320
-0.340
-0.350
-0.470
-0.370
-0.340
-0.320
-0.320
-0.330
-0.330
-0.300
-0.300
-0.280
-0.080
-0.040
-0.020
0.000
-0.020
0.000
0.000
0.000
0.060
0.090
0.070
0.090
0.050
0.100
0.040
0.060
0.070
0.050
0.030
0.020
-0.020
-0.080
-0.160
-0.190
-0.190
-0.160
-0.210
-0.190
-0.200
-0.170
-0.190
-0.180
-0.190
-0.160
-0.230
-0.200
-0.230
-0.240
-0.230
-0.240
-0.270
-0.250
-0.280
-0.250
-0.330
-0.250
-0.290
-0.250
-0.330
-0.320
-0.290
-0.320
-0.270
-0.280
-0.270
-0.240
-0.310
-0.360
-0.250
-0.200
-0.150
-0.100
-0.160
-0.170
-0.090
-0.080
-0.070
-0.110
-0.120
-0.090
-0.070
-0.100
-0.070
-0.060
-0.030
-0.050
-0.060
-0.070
-0.030
-0.020
0.010
0.040
-0.020
0.010
-0.050
-0.020
0.000
0.000
-0.030
0.010
0.040
0.020
0.040
0.010
0.050
0.030
0.010
-0.030
-0.190
-0.250
-0.320
-0.360
-0.320
-0.360
-0.360
-0.340
-0.360
-0.390
-0.410
-0.370
-0.370
-0.360
-0.310
-0.290
-0.300
-0.320
-0.300
-0.310
-0.310
-0.260
-0.220
-0.190
-0.140
-0.170
-0.180
-0.290
-0.190
-0.200
-0.140
-0.170
-0.140
-0.130
-0.150
-0.140
-0.130
-0.100
-0.110
-0.030
-0.030
0.000
-0.030
-0.040
-0.010
-0.040
-0.030
-0.020
-0.030
-0.040
-0.090
-0.060
-0.050
-0.060
-0.050
-0.080
-0.090
-0.080
-0.090
-0.100
-0.140
-0.110
-0.140
-0.100
-0.160
-0.170
-0.180
-0.190
-0.200
-0.190
-0.190
-0.220
-0.230
-0.240
-0.250
-0.230
-0.240
-0.270
-0.250
-0.260
-0.240
-0.270
-0.300
-0.310
-0.310
-0.340
-0.340
-0.370
-0.350
-0.350
-0.340
-0.340
-0.440
-0.370
-0.330
-0.280
-0.280
-0.200
-0.060
0.000
0.040
0.040
0.020
0.020
0.040
0.060
0.060
0.070
0.070
0.070
0.050
0.050
0.040
0.040
0.020
0.050
0.010
0.000
-0.060
-0.120
-0.160
-0.190
-0.170
-0.160
-0.170
-0.170
-0.200
-0.150
-0.170
-0.180
-0.170
-0.180
-0.180
-0.200
-0.210
-0.200
-0.210
-0.220
-0.260
-0.230
-0.260
-0.340
-0.330
-0.320
-0.370
-0.360
-0.350
-0.300
-0.310
-0.260
-0.270
-0.280
-0.290
-0.320
-0.330
-0.280
-0.250
-0.200
-0.220
-0.190
-0.110
-0.100
-0.090
-0.110
-0.160
-0.090
-0.050
0.000
-0.090
-0.080
-0.070
-0.080
-0.050
-0.030
-0.040
-0.050
-0.050
-0.020
-0.030
-0.030
-0.040
-0.050
-0.050
-0.040
0.000
-0.010
-0.010
-0.030
-0.040
-0.020
-0.020
-0.010
-0.010
-0.010
-0.050
-0.040
-0.210
-0.250
-0.340
-0.340
-0.360
-0.380
-0.360
-0.360
-0.380
-0.430
-0.430
-0.410
-0.410
-0.350
-0.340
-0.340
-0.310
-0.350
-0.370
-0.400
-0.330
-0.280
-0.220
-0.160
-0.250
-0.240
-0.170
-0.140
-0.090
-0.120
-0.100
-0.150
-0.080
-0.060
-0.110
-0.100
0.000
-0.080
-0.020
0.000
0.030
0.020
0.010
0.000
-0.010
0.020
-0.010
0.000
-0.010
-0.020
-0.030
-0.040
-0.070
-0.040
-0.050
-0.030
-0.070
-0.100
-0.130
-0.130
-0.140
-0.130
-0.140
-0.190
-0.180
-0.190
-0.180
-0.170
-0.200
-0.210
-0.210
-0.240
-0.250
-0.240
-0.250
-0.250
-0.240
-0.270
-0.250
-0.280
-0.310
-0.310
-0.300
-0.290
-0.310
-0.300
-0.320
-0.310
-0.330
-0.330
-0.380
-0.380
-0.290
-0.300
-0.300
-0.280
-0.300
-0.270
-0.230
-0.060
0.000
0.040
0.040
0.020
0.040
0.040
0.060
0.090
0.120
0.070
0.070
0.050
0.000
0.040
0.000
0.050
0.030
